baseline,,sample,,
Wavelength (nm),Abs,Wavelength (nm),Abs,
800.0101318,0.001721536973,800.0101318,0.007821881212,
799.0389404,-0.001115442254,799.0389404,0.004534007981,
798.0673218,0.00107814162,798.0673218,0.006716425065,
796.9564209,-0.0003465783375,796.9564209,0.007395485416,
795.9840088,0.0001889827981,795.9840088,0.006135397591,
795.0111694,-0.001214474905,795.0111694,0.002722712466,
794.0380249,-8.707166853E-5,794.0380249,0.007311209571,
793.0644531,-0.001518763136,793.0644531,0.005210735835,
791.951355,-0.001421193243,791.951355,0.004205043428,
790.9769897,0.001667483593,790.9769897,0.008009447716,
790.0022583,-0.0006829041522,790.0022583,0.005750575569,
789.0271606,2.593851423E-5,789.0271606,0.006799560506,
788.0516968,-0.002188828541,788.0516968,0.00420642877,
786.9364014,-0.0005196345737,786.9364014,0.005739978515,
785.960144,-0.0002612143871,785.960144,0.006338626612,
784.9835205,-0.0002517457178,784.9835205,0.006913614459,
784.0064697,0.001412016922,784.0064697,0.006658460945,
783.0291138,-0.0002728559193,783.0291138,0.00578053249,
782.0513306,-0.0009767691372,782.0513306,0.005812616087,
780.9334717,1.092401635E-5,780.9334717,0.007132049184,
779.9549561,-0.0006716871285,779.9549561,0.005597518291,
778.9760132,0.001338059898,778.9760132,0.008147847839,
777.9967651,0.002104390413,777.9967651,0.006641848478,
777.0170898,0.0008846214041,777.0170898,0.007986086421,
776.0371094,1.164870127E-6,776.0371094,0.007758683059,
775.0567017,0.001351146842,775.0567017,0.007007073145,
773.9358521,-0.000185045239,773.9358521,0.007636766881,
772.9547119,0.001362001058,772.9547119,0.00755202258,
771.9731445,-0.0002293926373,771.9731445,0.006118673831,
770.991272,-6.802300049E-5,770.991272,0.007210947573,
770.0090332,0.0004569205339,770.0090332,0.006730910856,
769.0264282,0.0007298465353,769.0264282,0.007427188568,
768.043396,-0.0005543305888,768.043396,0.008010264486,
767.0600586,-0.0004628532333,767.0600586,0.006562396418,
765.935791,-9.96495437E-5,765.935791,0.007243269123,
764.9517212,0.0003659746726,764.9517212,0.008583511226,
763.9672241,0.0006017995765,763.9672241,0.006908406503,
762.9823608,-0.0006284705596,762.9823608,0.006701414473,
761.9971924,0.00145133771,761.9971924,0.008365822956,
761.0116577,0.0001416711166,761.0116577,0.007802298758,
760.0256958,0.0003688245197,760.0256958,0.008090403862,
759.0394287,-0.001456384896,759.0394287,0.006680672988,
758.0527954,-0.001102119219,758.0527954,0.00844618585,
757.0657959,0.0006921985187,757.0657959,0.007721764501,
755.9373779,0.0002447949082,755.9373779,0.006024277303,
754.949646,-0.0009049618384,754.949646,0.00740069896,
753.9615479,-0.000562706904,753.9615479,0.007694255561,
752.9730835,0.0007747068885,752.9730835,0.007265695371,
751.9842529,0.0008998218109,751.9842529,0.007796632126,
750.9950562,0.001066023018,750.9950562,0.007425872143,
750.0055542,-0.0005266670487,750.0055542,0.007009624969,
749.015625,-0.001169350231,749.015625,0.007159154397,
748.0253906,0.0003199130588,748.0253906,0.009729657322,
747.03479,0.0009398225811,747.03479,0.00921388343,
746.0438843,-0.0007454452571,746.0438843,0.008123924956,
745.0525513,-0.0009823478758,745.0525513,0.009431150742,
744.0609131,-0.0001941013761,744.0609131,0.00901289843,
743.0689087,0.001066334429,743.0689087,0.01060078572,
741.9347534,-0.001046963385,741.9347534,0.009464801289,
740.9420166,0.0005380624207,740.9420166,0.009734368883,
739.9489136,0.0007081959629,739.9489136,0.01001536194,
738.9554443,-0.0004155815113,738.9554443,0.009350975044,
737.9616699,-0.000353096344,737.9616699,0.008945430629,
736.9675293,-0.0002558333217,736.9675293,0.009302389808,
735.9730225,0.0002905895235,735.9730225,0.01031933352,
734.9782104,0.0002663965279,734.9782104,0.009123120457,
733.9830322,-0.001064574812,733.9830322,0.009069512598,
732.9874878,1.726628398E-5,732.9874878,0.0109168468,
731.9915771,0.001154468278,731.9915771,0.01011743955,
730.9953613,-0.0009561063489,730.9953613,0.009242281318,
729.9987793,-0.0003770983312,729.9987793,0.009961352684,
729.0018921,3.76398275E-5,729.0018921,0.01043694094,
728.0046387,-0.0005576914991,728.0046387,0.009573338553,
727.007019,0.0001512780582,727.007019,0.0103468243,
726.0090942,-1.656670429E-5,726.0090942,0.009908091277,
725.0108032,-0.0004508547718,725.0108032,0.01090240665,
724.012146,0.0004429017135,724.012146,0.01082490478,
723.0131836,0.0003980237816,723.0131836,0.01043569483,
722.013855,0.001068280661,722.013855,0.01239270065,
721.0142212,0.000539876637,721.0142212,0.01003811788,
720.0142212,-0.001056363108,720.0142212,0.01134785824,
719.013916,-0.0011060955,719.013916,0.01089123171,
718.0131836,0.0007177635562,718.0131836,0.01175700873,
717.012207,-0.000942571729,717.012207,0.01097469218,
716.0108643,-0.001611307962,716.0108643,0.01071796473,
715.0091553,0.001063324278,715.0091553,0.01112806331,
714.0071411,0.001394357532,714.0071411,0.01203782391,
713.0047607,0.0005605079932,713.0047607,0.01124671288,
712.0020752,0.0001173569472,712.0020752,0.01096805464,
710.9990234,7.732827362E-5,710.9990234,0.01180860866,
709.9956665,7.106279372E-5,709.9956665,0.01165265776,
708.9919434,-0.0001988104923,708.9919434,0.01103111077,
707.987915,-0.0006396369427,707.987915,0.01182124391,
706.9835815,-8.34483435E-5,706.9835815,0.01169156004,
705.9788208,1.993224032E-6,705.9788208,0.01115594991,
704.9738159,-0.0006672933232,704.9738159,0.0102569107,
703.9684448,0.0001341100142,703.9684448,0.01084555313,
702.9627075,0.0001372949919,702.9627075,0.01190948579,
701.956665,-0.0002704758954,701.956665,0.01138907205,
700.9503174,0.0001153373014,700.9503174,0.01199556328,
699.9436035,-0.000122061072,699.9436035,0.01186162513,
698.9365845,-0.0001712795638,698.9365845,0.01167712081,
697.9292603,0.0008151889197,697.9292603,0.01206606161,
697.0655518,0.000612090691,697.0655518,0.011918745,
696.0575562,-9.116081492E-5,696.0575562,0.01161027513,
695.0492554,-0.0001512512536,695.0492554,0.01200248208,
694.0406494,-0.0003893574758,694.0406494,0.01190235559,
693.0316772,-1.615254405E-5,693.0316772,0.01191360969,
692.0223999,0.000113964983,692.0223999,0.01234316174,
691.0128174,0.0004444046353,691.0128174,0.01291530579,
690.0028687,0.0005231857067,690.0028687,0.01217924431,
688.9926147,0.0001598493836,688.9926147,0.0127289407,
687.9819946,0.0006338142557,687.9819946,0.01240676362,
686.9711304,-0.000304777961,686.9711304,0.01184851024,
685.9598389,0.0002485505247,685.9598389,0.01228795666,
684.9483032,-8.168843488E-5,684.9483032,0.01246981602,
683.9364624,0.0002955888922,683.9364624,0.01270375215,
683.0688477,9.060098591E-7,683.0688477,0.0125800129,
682.0563965,-0.001023514895,682.0563965,0.01136127673,
681.0435791,0.0006379102124,681.0435791,0.01225640252,
680.0304565,-4.286504918E-5,680.0304565,0.01200886909,
679.0170288,-0.0002254600258,679.0170288,0.01207870431,
678.0032349,-0.001639263472,678.0032349,0.01184747275,
676.9891357,-0.0001273402886,676.9891357,0.01343077142,
675.9747314,0.0004082841333,675.9747314,0.01302102767,
674.960022,-0.0004009438271,674.960022,0.0129471207,
673.9450073,-9.638864867E-5,673.9450073,0.01359305158,
672.9296265,4.91836181E-6,672.9296265,0.01328659337,
672.059082,0.000249146251,672.059082,0.01366490405,
671.0431519,0.0006001924048,671.0431519,0.01287015993,
670.0268555,0.000190070481,670.0268555,0.01316546369,
669.0103149,0.001718470245,669.0103149,0.01368360408,
667.9934082,0.0008352627628,667.9934082,0.01414130535,
666.9761963,-0.0003035363043,666.9761963,0.01314745378,
665.9586792,-0.0009156561573,665.9586792,0.01251545269,
664.9407959,0.0009594092844,664.9407959,0.01414197404,
664.0681152,0.0001850464323,664.0681152,0.01455596182,
663.0497437,-0.0006378276157,663.0497437,0.01347218361,
662.0310059,0.0008629630902,662.0310059,0.01447167713,
661.0119629,-0.000407874817,661.0119629,0.01374780387,
659.9925537,-0.0003782880667,659.9925537,0.01343381498,
658.9729004,-0.0002566611802,658.9729004,0.01364535093,
657.9529419,0.0001098221619,657.9529419,0.01360328123,
656.9326172,0.000448576553,656.9326172,0.01446833182,
656.0578613,0.0009931887034,656.0578613,0.01481636148,
655.0369873,-0.0005547442706,655.0369873,0.01419444662,
654.0158081,-0.0009867384797,654.0158081,0.01325715519,
652.9943237,0.0004980467493,652.9943237,0.01456969418,
651.9725342,0.0003027383354,651.9725342,0.01577922702,
650.9504395,0.0001024428566,650.9504395,0.01436220296,
649.9280396,0.0009035311523,649.9280396,0.0146349892,
649.0514526,-0.0007977971109,649.0514526,0.01443327405,
648.0284424,0.000197373578,648.0284424,0.01486371923,
647.005188,0.0008356777253,647.005188,0.01518314052,
645.9815674,-0.0004936753539,645.9815674,0.01449932437,
644.9577026,0.0004843375937,644.9577026,0.01496362034,
643.9334717,0.000321286032,643.9334717,0.01405223459,
643.0553589,0.0002641948813,643.0553589,0.01419546269,
642.0306396,0.0002109183115,642.0306396,0.01522211917,
641.0055542,0.0005216306308,641.0055542,0.0148101747,
639.9801636,0.0008491646149,639.9801636,0.01476177853,
638.9545288,-8.541529678E-5,638.9545288,0.01526064612,
637.9285278,-0.0002292373974,637.9285278,0.01497125626,
637.0488892,-0.0003051918466,637.0488892,0.01469274238,
636.0223999,-0.000603913737,636.0223999,0.01469788421,
634.9955444,1.793934644E-5,634.9955444,0.01514858752,
633.9684448,7.119224756E-5,633.9684448,0.01571131684,
632.940979,0.0007520946092,632.940979,0.01518281829,
632.0601196,0.0007433041465,632.0601196,0.01445390657,
631.0321045,-0.0003104688367,631.0321045,0.01409434807,
630.0038452,-7.071470463E-5,630.0038452,0.01630533487,
628.9752808,0.000181369076,628.9752808,0.01521925069,
627.9464111,-0.001238532597,627.9464111,0.01412630267,
627.06427,-0.0005864904961,627.06427,0.01490604505,
626.0348511,0.0002198275033,626.0348511,0.01547937747,
625.005127,0.0002314045414,625.005127,0.01641874015,
623.9750977,0.0005578382988,623.9750977,0.01608914137,
622.9448242,0.0003154315054,622.9448242,0.01512936875,
622.0614624,-0.0001321536402,622.0614624,0.01552562695,
621.0306396,-0.0004496135516,621.0306396,0.01500775106,
619.9994507,0.0001500609942,619.9994507,0.01621245965,
618.9680176,0.0006273074541,618.9680176,0.01609035023,
617.9362793,-0.0005763567751,617.9362793,0.01527930796,
617.0517578,-3.147619645E-5,617.0517578,0.01551846415,
616.0194702,-0.001775714569,616.0194702,0.01486404054,
614.9868774,-8.318953769E-5,614.9868774,0.01574816927,
613.9540405,0.0008436660282,613.9540405,0.01663340256,
613.0685425,0.0008585537435,613.0685425,0.01749907248,
612.0351563,7.89852711E-5,612.0351563,0.01709344424,
611.0014648,0.0006371843629,611.0014648,0.01737228967,
609.9674683,0.0009737042128,609.9674683,0.01827612519,
608.9332275,0.0002541451249,608.9332275,0.01841886155,
608.0465088,-6.983472849E-5,608.0465088,0.01799958572,
607.0117188,0.0003548603563,607.0117188,0.01848252304,
605.9766235,-0.0006278501824,605.9766235,0.01886352338,
604.9412842,5.770365533E-5,604.9412842,0.01939311251,
604.0535889,-0.0003500442836,604.0535889,0.01957661845,
603.0177002,0.0001445972011,603.0177002,0.02041187696,
601.9815674,9.656539623E-5,601.9815674,0.02115964517,
600.9450684,0.0004852964194,600.9450684,0.02214600891,
600.0564575,0.0005250776303,600.0564575,0.0231479425,
599.0194702,-0.0004384422209,599.0194702,0.02279745601,
597.9822388,0.0007556990022,597.9822388,0.02379411459,
596.9446411,0.0003753792844,596.9446411,0.02502460219,
596.0551147,0.0003706121934,596.0551147,0.02465731278,
595.0170288,8.949701441E-5,595.0170288,0.02599500306,
593.9786987,0.0002721726778,593.9786987,0.0269376114,
592.9400635,-0.0002048649912,592.9400635,0.02746553347,
592.0495605,0.0007673940854,592.0495605,0.02962446027,
591.010437,0.00110406673,591.010437,0.03162583709,
589.9710083,-0.0005454887869,589.9710083,0.03190802038,
588.9312744,0.0002351600124,588.9312744,0.03374415636,
588.039917,-0.0003105205833,588.039917,0.03518427536,
586.9996948,0.001159737119,586.9996948,0.03871363774,
585.9591675,0.001124128001,585.9591675,0.04146995768,
585.0670776,-0.0007424476207,585.0670776,0.04344234616,
584.026062,0.0001312358072,584.026062,0.04603293166,
582.9848022,0.0005348745035,582.9848022,0.04923655465,
581.9432373,-0.0001844759972,581.9432373,0.05277722701,
581.0502319,8.900507964E-5,581.0502319,0.05587476119,
580.0081787,1.296906339E-5,580.0081787,0.0591674298,
578.9658203,5.477816376E-5,578.9658203,0.06190081313,
578.0721436,-0.001398797031,578.0721436,0.06334608048,
577.0292969,0.0003679695656,577.0292969,0.06698242575,
575.9862061,-0.0004983295221,575.9862061,0.06850216538,
574.9428101,-0.0004375629942,574.9428101,0.07169659436,
574.0482178,-0.0005509697367,574.0482178,0.07416521013,
573.0043335,-8.453534247E-5,573.0043335,0.07516739517,
571.960144,-0.0001247006876,571.960144,0.07661452889,
571.0649414,0.0002294879523,571.0649414,0.07728400081,
570.0202637,1.827587766E-5,570.0202637,0.0776533708,
568.9753418,0.0003038004215,568.9753418,0.07779894024,
567.9301147,-0.0007620868855,567.9301147,0.07664970309,
567.0339966,-0.0007356253336,567.0339966,0.07611079514,
565.9882813,0.0002755917958,565.9882813,0.07581956685,
564.9423218,-0.0004200813419,564.9423218,0.07457530499,
564.0455933,-0.0003873401729,564.0455933,0.07335332781,
562.9990845,-7.35099311E-5,562.9990845,0.07225481421,
561.9523926,-0.0003110896796,561.9523926,0.07037758827,
561.0549927,0.0006487725186,561.0549927,0.07007463276,
560.0077515,-0.001033638255,560.0077515,0.06845073402,
558.9602661,-1.10272822E-5,558.9602661,0.0675162524,
558.0621948,0.0005539245321,558.0621948,0.06647980958,
557.0142212,0.0006903836038,557.0142212,0.06688306481,
555.9659424,0.001040437492,555.9659424,0.06586352736,
555.0672607,0.0004643576976,555.0672607,0.06483422965,
554.0185547,0.0005444642156,554.0185547,0.0645134598,
552.9695435,-9.602632781E-5,552.9695435,0.06475612521,
552.0701904,0.0002672253759,552.0701904,0.06471207738,
551.020752,-0.0001321018935,551.020752,0.06588039547,
549.9710083,0.0004919306957,549.9710083,0.06604509801,
549.0710449,0.0001501386723,549.0710449,0.06600359827,
548.020813,-5.006057836E-5,548.020813,0.06698504835,
546.9703369,-0.00124823791,546.9703369,0.06687524915,
546.0697021,4.595002611E-5,546.0697021,0.06846800447,
545.0187988,-0.001161140506,545.0187988,0.06869227439,
543.9675903,0.0004154095368,543.9675903,0.07150797546,
543.0663452,-0.0002147486666,543.0663452,0.07166026533,
542.0146484,-0.0002208029473,542.0146484,0.07247400284,
540.9627075,-0.0003664424585,540.9627075,0.07338624448,
540.0608521,-0.0003050366358,540.0608521,0.07344193757,
539.0084229,-0.0009655596805,539.0084229,0.0737991035,
537.9557495,-0.001143429778,537.9557495,0.07393285632,
537.0532837,-0.001164961373,537.0532837,0.07398313284,
536.0001221,-0.000400736928,536.0001221,0.07521821558,
534.9467163,-0.0006683788379,534.9467163,0.07415827364,
534.0436401,-9.167841927E-5,534.0436401,0.07487951219,
532.9897461,-0.0004232880892,532.9897461,0.07362474501,
531.9356689,-5.787716873E-5,531.9356689,0.07282996923,
531.0319214,-2.474628127E-5,531.0319214,0.07167015225,
529.977356,-0.0005143600865,529.977356,0.07215411961,
529.0732422,-0.001666134223,529.0732422,0.06920082867,
528.0181885,0.0001571303583,528.0181885,0.06971660256,
526.9628906,-0.0001892369619,526.9628906,0.06831499189,
526.0581665,-0.0001317395945,526.0581665,0.06749780476,
525.0023804,0.0005397211644,525.0023804,0.06710264832,
523.9464111,-0.0002124718158,523.9464111,0.0641938597,
523.0410767,0.0001582179684,523.0410767,0.06268613786,
521.9846191,-3.085497883E-5,521.9846191,0.06174874678,
520.9279175,-0.0001887712278,520.9279175,0.06014156342,
520.0219727,-5.658304144E-5,520.0219727,0.05940949544,
518.9647827,-0.0006203540252,518.9647827,0.05769617856,
518.0584717,-0.0002961380233,518.0584717,0.05681412295,
517.0008545,-0.0004575781059,517.0008545,0.05548259243,
515.9429932,-0.0008214645204,515.9429932,0.05349915475,
515.0360718,0.0002416609641,515.0360718,0.05308171362,
513.9777222,0.0004904535017,513.9777222,0.05232777074,
513.0704346,-0.001036943751,513.0704346,0.05086591095,
512.0116577,0.001099940506,512.0116577,0.0513805151,
510.9526672,-8.044613787E-5,510.9526672,0.05071896687,
510.0447693,-0.0008684337372,510.0447693,0.04959691688,
508.985321,0.0001596422226,508.985321,0.04889204353,
507.9256287,-0.0002235971915,507.9256287,0.04825457931,
507.0171204,-0.001053729211,507.0171204,0.04706383124,
505.9570007,-3.748126619E-5,505.9570007,0.04761380702,
505.0481262,-0.0002077110985,505.0481262,0.04745176062,
503.9875488,-0.0004835394502,503.9875488,0.04667186365,
502.9267273,-0.0007024427177,502.9267273,0.04716896638,
502.0172729,-8.624348266E-5,502.0172729,0.04697504267,
500.9560242,0.0007608074811,500.9560242,0.04686023295,
500.0462036,0.0003308451269,500.0462036,0.04655658826,
498.9844971,-0.0004741273588,498.9844971,0.04577424377,
498.0742798,-7.749567158E-5,498.0742798,0.04630150646,
497.012146,0.0001889051055,497.012146,0.04614872858,
495.9497986,-2.945723281E-5,495.9497986,0.04561339691,
495.0390015,-1.863785769E-6,495.0390015,0.04641066492,
493.9762268,-0.0007589343586,493.9762268,0.04554273188,
493.0650635,-0.0001649140759,493.0650635,0.04589400068,
492.0018311,-4.633341086E-5,492.0018311,0.04619245976,
490.9383545,0.0002105557214,490.9383545,0.04635786638,
490.0266418,-0.0005360780633,490.0266418,0.04664067924,
488.9627686,-0.0004521477385,488.9627686,0.04619516805,
488.0506592,0.0009553362033,488.0506592,0.04687733203,
486.9863586,-0.0001518723002,486.9863586,0.04667861015,
486.0738831,-0.0003466818016,486.0738831,0.04645010084,
485.0091553,0.0002443546255,485.0091553,0.04778443649,
483.9441833,0.0003120898036,483.9441833,0.04777316749,
483.0311584,-0.0003146593517,483.0311584,0.04790639877,
481.9657593,9.137843335E-6,481.9657593,0.04816254228,
481.0523682,0.001038179966,481.0523682,0.04922153428,
479.9865417,-0.0003690288577,479.9865417,0.04857883975,
479.0728149,9.309592133E-5,479.0728149,0.04969866574,
478.0065918,0.000526347605,478.0065918,0.05043569952,
476.9401245,7.383305638E-5,476.9401245,0.05075399578,
476.0258179,-0.0003136763989,476.0258179,0.05136149004,
474.9589233,0.0007466232637,474.9589233,0.05324019864,
474.044281,-0.000579769141,474.044281,0.05292439833,
472.9769897,5.627974315E-5,472.9769897,0.05446463451,
472.0619812,-5.601362136E-5,472.0619812,0.05530655757,
470.9942627,-0.0003702185932,470.9942627,0.05634496734,
469.9263306,-0.0003909092338,469.9263306,0.05734412745,
469.0108032,-0.000533544342,469.0108032,0.05944024771,
467.9424438,-0.0001065335746,467.9424438,0.06103067845,
467.0265503,-0.0002743563673,467.0265503,0.06226192415,
465.9577942,-0.0004453208821,465.9577942,0.06454562396,
465.0415344,-7.640865806E-5,465.0415344,0.06623057276,
463.9723816,5.436087577E-6,463.9723816,0.06965782493,
463.0557861,-2.044943358E-5,463.0557861,0.07181077451,
461.9862061,-7.273347728E-5,461.9862061,0.07455290109,
461.0692749,-4.302034722E-5,461.0692749,0.07685870677,
459.9992981,-0.0001212329516,459.9992981,0.08012884855,
458.9291077,0.0001093819883,458.9291077,0.08419397473,
458.0116272,-0.0005638960865,458.0116272,0.08725193888,
456.94104,0.0002789332066,456.94104,0.09151539207,
456.0232239,-0.0002385513217,456.0232239,0.09494949877,
454.95224,8.22992879E-5,454.95224,0.09914078563,
454.0340576,-0.0002185261255,454.0340576,0.1031928137,
452.962677,-2.283082358E-5,452.962677,0.1088104695,
452.0441589,0.000116191768,452.0441589,0.113416709,
450.9723816,0.0003667000856,450.9723816,0.1194054782,
450.0535583,0.0001076989793,450.0535583,0.1243197098,
448.9813538,8.771051944E-5,448.9813538,0.1306445599,
448.0621948,0.0001216810924,448.0621948,0.1385335028,
446.989624,0.0007873879513,446.989624,0.1452819109,
446.0700989,-7.459695189E-5,446.0700989,0.1529523283,
444.9971313,-0.000119783741,444.9971313,0.1622959822,
443.9239502,-3.603177174E-5,443.9239502,0.1725410223,
443.0039368,-0.0003956161963,443.0039368,0.1830226034,
441.9303589,-0.0005993641098,441.9303589,0.1959561855,
441.0100098,5.190446973E-5,441.0100098,0.2091311514,
439.9360657,9.400212002E-5,439.9360657,0.2248032838,
439.0153809,0.0004056413018,439.0153809,0.2377138883,
437.94104,6.316635699E-5,437.94104,0.258760035,
437.0200195,-0.0004273223458,437.0200195,0.2791559994,
435.945282,-8.148138295E-5,435.945282,0.3050277233,
435.0239563,0.0004184411082,435.0239563,0.3271206617,
433.9488525,-0.0001271332731,433.9488525,0.3580210507,
433.0271606,2.120112549E-5,433.0271606,0.3843990564,
431.9516907,-0.0007885468658,431.9516907,0.4160967469,
431.0296936,-0.0001347931975,431.0296936,0.4529410005,
429.9538269,-5.570303256E-5,429.9538269,0.4865188599,
429.0315247,-0.0001088109784,429.0315247,0.5164090991,
427.9552917,-4.198501119E-5,427.9552917,0.5513159037,
427.0326538,9.017018601E-5,427.0326538,0.5809731483,
425.9560242,-0.0005780112697,425.9560242,0.6129601598,
425.0330811,-0.0002199750161,425.0330811,0.6425242424,
423.9560852,-0.0003680977388,423.9560852,0.672550261,
423.0328064,-0.0004312014207,423.0328064,0.6876974702,
421.9554443,0.0006570426049,421.9554443,0.7042362094,
421.0318604,-0.0005838019424,421.0318604,0.7139621377,
419.9541321,-0.0002204924676,419.9541321,0.719569087,
419.0302124,0.0001296303817,419.0302124,0.7168448567,
417.9521484,-0.0003303863341,417.9521484,0.7085111141,
417.0278931,-0.0005143083981,417.0278931,0.6981466413,
415.9494629,-0.0001810604881,415.9494629,0.6796354651,
415.0249023,0.0009989744285,415.0249023,0.6578250527,
413.946106,0.0003969355894,413.946106,0.6342203021,
413.0212402,0.0007396480069,413.0212402,0.6130924821,
411.9420776,9.810893062E-6,411.9420776,0.5881876945,
411.0169067,0.000111246256,411.0169067,0.5644462109,
409.9373779,-0.0007370208041,409.9373779,0.5314922333,
409.0119019,0.0008108578622,409.0119019,0.5092409849,
407.9320068,-0.0007232726202,407.9320068,0.4822457433,
407.0062256,-0.000106740612,407.0062256,0.4648859501,
405.9259644,0.0005929084728,405.9259644,0.4423927367,
404.9998779,0.0003034636611,404.9998779,0.4194361269,
404.0736694,0.0004049158306,404.0736694,0.40338552,
402.9928894,0.0007865062216,402.9928894,0.385697633,
402.0663452,0.0002113844821,402.0663452,0.3721384108,
400.9852295,-0.0008600116707,400.9852295,0.3547998667,
400.0584106,0.000380405545,400.0584106,0.3407622278,
398.9769287,-7.299229765E-5,398.9769287,0.3247106969,
398.0498047,-2.360736107E-5,398.0498047,0.313729018,
396.9679871,5.159380089E-5,396.9679871,0.2998424172,
396.0405579,9.596988821E-5,396.0405579,0.2902290821,
394.958374,0.0005822549574,394.958374,0.278400898,
394.0306702,0.0005360408104,394.0306702,0.2658753991,
392.9481506,-0.0004145987914,392.9481506,0.2565088272,
392.0201111,2.360864528E-5,392.0201111,0.2498966157,
390.9372559,-4.400391845E-5,390.9372559,0.2397071123,
390.0089417,-0.0002341013605,390.0089417,0.2318768203,
388.9257507,-0.0001647070603,388.9257507,0.2241877764,
387.9971619,-1.522068305E-5,387.9971619,0.2189083993,
387.0684204,0.0003945778008,387.0684204,0.2128032148,
385.9847107,0.0008621331071,385.9847107,0.2068714797,
385.0556946,0.0006827870384,385.0556946,0.2023428828,
383.9716492,-0.0002011909091,383.9716492,0.1967888921,
383.0423279,0.0004472550063,383.0423279,0.1947239488,
381.9579468,9.229328134E-5,381.9579468,0.1909877062,
381.0283508,0.0005648625083,381.0283508,0.188530311,
379.943634,0.000237076616,379.943634,0.1865062416,
379.0137634,0.0003205865796,379.0137634,0.1852918565,
377.9287109,-0.0001652763458,377.9287109,0.1838304549,
376.9985352,0.0002774049644,376.9985352,0.1839370281,
376.0682373,-0.001118643908,376.0682373,0.1826728731,
374.9827271,-0.0002833588806,374.9827271,0.1837590337,
374.052124,-7.811682735E-5,374.052124,0.1849527359,
372.9662781,0.000410512439,372.9662781,0.186445117,
372.0354004,4.061698201E-5,372.0354004,0.1881253272,
370.9492493,0.0003413111554,370.9492493,0.1892802715,
370.0180969,0.0004122225218,370.0180969,0.1916089803,
368.9315796,0.0001726160554,368.9315796,0.1929404736,
368.0001831,-5.927482198E-5,368.0001831,0.1956714243,
367.068634,2.070926894E-5,367.068634,0.197207734,
365.9816589,-9.271364252E-5,365.9816589,0.1997018605,
365.0498352,-0.0006817669491,365.0498352,0.2003842443,
363.9625244,0.0001702336012,363.9625244,0.2030913979,
363.030426,-0.0001203530774,363.030426,0.2048792094,
361.9428406,0.000138123607,361.9428406,0.206059128,
361.0104675,-0.0002952585055,361.0104675,0.2059774697,
359.9225159,0.0003125042713,359.9225159,0.2068322152,
358.9898987,0.0002999407297,358.9898987,0.2068732679,
358.0571289,-0.0001917209302,358.0571289,0.2066572458,
356.96875,0.000139211159,356.96875,0.2050595134,
356.0357056,-0.0001991209865,356.0357056,0.203232646,
354.9470215,0.0004431608249,354.9470215,0.2022963911,
354.0137024,-4.504135177E-6,354.0137024,0.1998357922,
352.9247131,-9.079848678E-5,352.9247131,0.1965231597,
351.9911194,0.0001650026243,351.9911194,0.1941624284,
351.0574341,-0.0002770985302,351.0574341,0.1916490346,
349.9679871,-0.0001073099629,349.9679871,0.1882143617,
349.0340271,0.0006219153875,349.0340271,0.1848700345,
347.9442749,0.0002943196159,347.9442749,0.1811470091,
347.0100708,-0.0003752878984,347.0100708,0.177268818,
346.0757141,2.182241951E-5,346.0757141,0.1750701517,
344.9855347,0.0005931676715,344.9855347,0.1726234555,
344.0509338,-0.0004569057783,344.0509338,0.1685614586,
342.9604187,0.0001442087814,342.9604187,0.1641049534,
342.0255737,-0.0003961334587,342.0255737,0.1601511687,
340.9347534,0.0006437691045,340.9347534,0.1562171131,
339.9996643,-0.000249676028,339.9996643,0.1531430632,
339.0644226,-0.0002323938097,339.0644226,0.1502177417,
337.973175,-0.0004632669734,337.973175,0.1446633041,
337.0377197,-3.737772931E-5,337.0377197,0.1418980956,
335.946167,0.0002328549308,335.946167,0.1378353536,
335.010437,8.038336819E-5,335.010437,0.1348819137,
334.074585,-0.0002983109734,334.074585,0.1315444261,
332.9826355,-0.0009792485507,332.9826355,0.1261046827,
332.0465393,3.515456774E-5,332.0465393,0.1237671301,
330.9542847,-0.0001718488202,330.9542847,0.1198367029,
330.0179138,9.189616321E-6,330.0179138,0.1180311516,
328.9253845,-0.0009288300062,328.9253845,0.113015987,
327.9888,-0.0003424916067,327.9888,0.1104158312,
327.0520935,0.0008408389986,327.0520935,0.1083575562,
325.9591064,0.000199911563,325.9591064,0.10486947,
325.0221558,2.876026338E-5,325.0221558,0.1038242429,
323.928894,0.0004424352956,323.928894,0.1008820683,
322.9916992,6.308868615E-5,322.9916992,0.09797610343,
322.0544128,-0.0002676819568,322.0544128,0.09568767995,
320.9607544,-4.669577538E-5,320.9607544,0.09391190857,
320.0231934,-0.0001236137905,320.0231934,0.09290359914,
318.9292603,0.0002354708267,318.9292603,0.09120963514,
317.9914551,0.000672338705,317.9914551,0.09023685008,
317.0535583,-0.0001249594789,317.0535583,0.08921486884,
315.959198,4.343882756E-5,315.959198,0.08944743127,
315.0210876,-0.0003963920753,315.0210876,0.08955937624,
313.9264526,-3.044083132E-5,313.9264526,0.08996089548,
312.9880676,-0.0004369940725,312.9880676,0.09070327133,
312.0495911,-0.001209312119,312.0495911,0.09148982912,
310.9545593,0.0002941642015,310.9545593,0.09494353831,
310.0158386,-1.8430419E-5,310.0158386,0.09705596417,
309.0770264,6.723106344E-5,309.0770264,0.1011822671,
307.9815979,-0.0001284789469,307.9815979,0.1063991785,
307.0425415,0.0003271147143,307.0425415,0.1123590544,
305.9468689,-3.551409463E-5,305.9468689,0.1193820015,
305.0075684,0.0008660756284,305.0075684,0.1275786906,
304.0681763,-0.0001535801712,304.0681763,0.134663865,
302.9721069,-4.462511788E-5,302.9721069,0.1472159773,
302.0325012,-0.0001018752228,302.0325012,0.1574163288,
300.9361267,6.808543549E-5,300.9361267,0.1692671329,
299.9963074,6.707572174E-5,299.9963074,0.1793695241,
299.056366,0.0001683690789,299.056366,0.1926699132,
297.9596252,0.0002039516548,297.9596252,0.2093010843,
297.0194397,0.0002673289855,297.0194397,0.228814289,
295.9224548,4.139363591E-5,295.9224548,0.2499833703,
294.9820557,0.0003039299336,294.9820557,0.2668532133,
294.0415649,-0.0001920314244,294.0415649,0.2882855833,
292.9442139,4.884956797E-5,292.9442139,0.3091268837,
292.003479,-0.0001028586557,292.003479,0.3189217746,
291.0626831,0.0006314552156,291.0626831,0.3300013244,
289.9649353,0.000143328376,289.9649353,0.3463152647,
289.0238953,-0.0002068831527,289.0238953,0.3671588004,
287.9259033,0.0005327492254,287.9259033,0.3884012997,
286.9846497,-0.0009289850132,286.9846497,0.4073969722,
286.0433044,0.0001694049279,286.0433044,0.4185077846,
284.9449463,-0.0002194058034,284.9449463,0.4256628752,
284.0033569,0.0001313393732,284.0033569,0.4283525646,
283.0617065,0.0005844063708,283.0617065,0.4305613339,
281.9629822,6.44867323E-5,281.9629822,0.4329243302,
281.0211182,0.0004231569183,281.0211182,0.4347260892,
279.9221191,-0.000117144089,279.9221191,0.4325926602,
278.9800415,0.0002222361218,278.9800415,0.4304924309,
278.0378723,0.0002718359465,278.0378723,0.426068157,
276.9385376,-0.0001504231914,276.9385376,0.4207348526,
275.9961548,-0.0003646319383,275.9961548,0.4132126272,
275.0536804,-0.0001002189019,275.0536804,0.4065442681,
273.9539795,-0.0001286342158,273.9539795,0.3972403705,
273.0112915,-3.282216858E-5,273.0112915,0.3897992074,
272.068512,-0.0002847558353,272.068512,0.3823488951,
270.9684753,-0.0008842439856,270.9684753,0.3756857514,
270.0254822,6.420194404E-5,270.0254822,0.3679976463,
268.9252014,-1.635962326E-5,268.9252014,0.3545731604,
267.9820251,0.0001766558853,267.9820251,0.3464105129,
267.0387573,4.830590478E-5,267.0387573,0.3398434818,
265.9381409,-0.0001994832273,265.9381409,0.3277849257,
264.9946594,0.000515902997,264.9946594,0.3201791644,
264.0510864,0.0007341767778,264.0510864,0.3092931807,
262.9501343,0.0009090304375,262.9501343,0.3020627201,
262.0063477,4.752923996E-5,262.0063477,0.2967344224,
261.0625,0.001013763715,261.0625,0.2939181328,
259.9612122,0.001480843523,259.9612122,0.2874961197,
259.0171509,-0.002298585838,259.0171509,0.2759625316,
258.072998,-0.0001100531954,258.072998,0.2713888288,
256.9713745,-0.001060236595,256.9713745,0.2643238604,
256.0270386,-0.00155420485,256.0270386,0.265419066,
254.9252014,-0.0005981749855,254.9252014,0.2649330497,
253.9806671,-0.0004470793356,253.9806671,0.2642223835,
253.0360413,7.085567631E-5,253.0360413,0.2651844621,
251.9338837,0.001124179922,251.9338837,0.2695862949,
250.9890747,-0.0001991209865,250.9890747,0.2748757899,
250.0441742,-0.0002296513558,250.0441742,0.2853232622,
248.947998,-0.0002190435916,248.947998,0.2982022762,
248.0085449,-0.001044794219,248.0085449,0.3114650846,
247.0690155,-0.0005195828271,247.0690155,0.3289024234,
245.9727936,-0.0007472024881,245.9727936,0.3655951321,
245.0330658,-0.0005018976517,245.0330658,0.3960556686,
243.9366302,-0.0001291000226,243.9366302,0.4443633258,
242.9967346,-0.0002002076944,242.9967346,0.4893349111,
242.0567474,-0.0003230402654,242.0567474,0.548243463,
240.9600067,-0.0005242884508,240.9600067,0.6431717873,
240.0198364,5.25258074E-5,240.0198364,0.7496780753,
238.9228821,-0.001113170176,238.9228821,0.925447464,
237.9825439,6.334758655E-5,237.9825439,1.047772169,
237.0421143,0.0001645623852,237.0421143,1.195530534,
235.9448547,0.001715013757,235.9448547,1.408664703,
235.0042572,-0.0004330116208,235.0042572,1.592182517,
234.0635834,8.962646825E-5,234.0635834,1.942304492,
232.9660187,-0.0009445864707,232.9660187,1.987803817,
232.025177,0.0006459208089,232.025177,2.201204538,
230.9274139,-0.0001961195812,230.9274139,2.538130999,
229.9863892,0.001391319092,229.9863892,2.440263271,
229.0452728,0.001158802654,229.0452728,2.826814413,
227.9472198,0.004569923971,227.9472198,2.675956011,
227.0059509,0.00452838419,227.0059509,2.681867361,
226.0646057,0.006310154684,226.0646057,2.70553422,
224.9662628,-0.003562068101,224.9662628,2.683619976,
224.0247345,-0.0007798648439,224.0247345,2.497158051,
222.9261932,-0.01014640369,222.9261932,2.454924107,
221.9845123,-0.003500393359,221.9845123,2.079298735,
221.0427551,0.006450667977,221.0427551,2.020249367,
219.943924,-0.00701309694,219.943924,1.870718479,
219.0019989,-0.001465982175,219.0019989,1.59177053,
218.0599976,0.00695393607,218.0599976,1.456879258,
216.960907,-0.02768890932,216.960907,1.981348634,
216.0187378,-0.01313437242,216.0187378,1.128190279,
215.0765076,0.02797077037,215.0765076,0.9868058562,
213.9771271,-0.09577667713,213.9771271,0.7863602638,
213.034729,0.1101847365,213.034729,0.5801211596,
211.9351807,-0.006559164729,211.9351807,0.5877935886,
210.9926147,-0.01271962933,210.9926147,0.2371108681,
210.0499878,-0.03833816573,210.0499878,0.495085299,
208.9501648,0.03674264625,208.9501648,0.6733392477,
208.0073853,-0.02628654428,208.0073853,0.7238584161,
207.0645294,-0.03655292094,207.0645294,0.671730876,
205.9644318,-0.1939204484,205.9644318,0.08767857403,
205.0214233,-0.02358306386,205.0214233,0.6980774999,
204.0783539,-0.133169353,204.0783539,0.2603487074,
202.9779968,-0.07299182564,202.9779968,0.508279562,
202.0347748,-0.1629922539,202.0347748,0.3006340265,
200.9342499,-0.07858124375,200.9342499,0.5169796348,
199.9907532,0.07680095732,199.9907532,0.6370347142,

baseline,
baseline
Collection Time: 25/06/2019 09:42:27
Operator Name  :
Scan Software Version: 3.00(339)
Parameter List :
Instrument                        Cary 50
Instrument Version                3.00
Start (nm)                        800.0
Stop (nm)                         200.0
X Mode                            Nanometers
Y Mode                            Abs
UV-Vis Scan Rate (nm/min)         4800.00
UV-Vis Data Interval (nm)         1.00
UV-Vis Ave. Time (sec)            0.0125
Beam Mode                         Dual Beam
Baseline Correction               On
Baseline Type                     Baseline correction
Baseline File Name
Baseline Std Ref File Name
Cycle Mode                        Off
Comments
Method Log     :
Method Name    :
Date/Time stamp: 22/06/2019 15:59:43
Method Modifications:
Common Interval nm Changed: 25/06/2019 09:42:09, Old:     5.00, New:     1.00
Baseline Correction Changed: 25/06/2019 09:42:09, Old:0, New:1
Storage Changed: 25/06/2019 09:42:09, Old:1, New:0
End Method Modifications
<Current Wavelength> , 203.0

sample,
sample
Collection Time: 25/06/2019 09:42:44
Operator Name  :
Scan Software Version: 3.00(339)
Parameter List :
Instrument                        Cary 50
Instrument Version                3.00
Start (nm)                        800.0
Stop (nm)                         200.0
X Mode                            Nanometers
Y Mode                            Abs
UV-Vis Scan Rate (nm/min)         4800.00
UV-Vis Data Interval (nm)         1.00
UV-Vis Ave. Time (sec)            0.0125
Beam Mode                         Dual Beam
Baseline Correction               On
Baseline Type                     Baseline correction
Baseline File Name
Baseline Std Ref File Name
Cycle Mode                        Off
Comments
Method Log     :
Method Name    :
Date/Time stamp: 22/06/2019 15:59:43
Method Modifications:
Common Interval nm Changed: 25/06/2019 09:42:09, Old:     5.00, New:     1.00
Baseline Correction Changed: 25/06/2019 09:42:09, Old:0, New:1
Storage Changed: 25/06/2019 09:42:09, Old:1, New:0
End Method Modifications
<Current Wavelength> , 203.0

