baseline,,bm3,,
Wavelength (nm),Abs,Wavelength (nm),Abs,
800.0101318,2.591262819E-5,800.0101318,0.007955528796,
799.0389404,0.0002637286379,799.0389404,0.008469915017,
798.0673218,-0.001270074048,798.0673218,0.004882462788,
796.9564209,0.0001990051387,796.9564209,0.006305085495,
795.9840088,-0.0006401539431,795.9840088,0.008227432147,
795.0111694,-0.0007342815516,795.0111694,0.007526289206,
794.0380249,0.002925575478,794.0380249,0.008701414801,
793.0644531,-0.0003816502867,793.0644531,0.007897504605,
791.951355,0.001734973397,791.951355,0.008758014999,
790.9769897,-0.001235486707,790.9769897,0.008860906586,
790.0022583,-0.0005814753822,790.0022583,0.009477157146,
789.0271606,-0.0002118508564,789.0271606,0.007720631547,
788.0516968,0.0007059661439,788.0516968,0.006334397942,
786.9364014,0.001900766627,786.9364014,0.01075001713,
785.960144,-0.002097694669,785.960144,0.005625812337,
784.9835205,0.001317521324,784.9835205,0.01030061953,
784.0064697,0.0009382920107,784.0064697,0.009554180317,
783.0291138,0.000372581213,783.0291138,0.008676722646,
782.0513306,0.001164123532,782.0513306,0.01023374684,
780.9334717,0.002822464565,780.9334717,0.01081519201,
779.9549561,-0.001020725816,779.9549561,0.007532109972,
778.9760132,-0.001232285984,778.9760132,0.007188997697,
777.9967651,0.0003238765348,777.9967651,0.009429007769,
777.0170898,0.0001463321387,777.0170898,0.009635875002,
776.0371094,0.0008363261586,776.0371094,0.009654111229,
775.0567017,0.0001437685714,775.0567017,0.009734501131,
773.9358521,-0.0003019325086,773.9358521,0.008464055136,
772.9547119,0.002225361764,772.9547119,0.01099996641,
771.9731445,-4.923231972E-5,771.9731445,0.01041257381,
770.991272,0.0004269399797,770.991272,0.008291700855,
770.0090332,-0.001257839729,770.0090332,0.00999782607,
769.0264282,-0.001966086449,769.0264282,0.01042302046,
768.043396,-0.00076487771,768.043396,0.008719347417,
767.0600586,-0.0002040887775,767.0600586,0.008653351106,
765.935791,-0.0009951581014,765.935791,0.01055174228,
764.9517212,-0.001169350231,764.9517212,0.01027527917,
763.9672241,-0.0009868418565,763.9672241,0.009281682782,
762.9823608,-0.0007449284312,762.9823608,0.01030300464,
761.9971924,-0.0002414489572,761.9971924,0.008801731281,
761.0116577,0.001213805168,761.0116577,0.01175392419,
760.0256958,-0.002285453491,760.0256958,0.009145961143,
759.0394287,-0.0003168321855,759.0394287,0.01141973957,
758.0527954,0.0002801765222,758.0527954,0.01097713411,
757.0657959,0.001619750867,757.0657959,0.01227831654,
755.9373779,-0.0005414556363,755.9373779,0.01044075936,
754.949646,-0.0004189434694,754.949646,0.01040252484,
753.9615479,-3.416934305E-6,753.9615479,0.0122919241,
752.9730835,0.001416431856,752.9730835,0.01307995431,
751.9842529,-0.000952800212,751.9842529,0.01286349446,
750.9950562,-0.0001547705033,750.9950562,0.01230238937,
750.0055542,0.0001224578882,750.0055542,0.01313085761,
749.015625,-0.001250664121,749.015625,0.01179626677,
748.0253906,-0.0003329729661,748.0253906,0.01244315039,
747.03479,0.0004318631836,747.03479,0.0142011065,
746.0438843,-0.0001591177861,746.0438843,0.01257300563,
745.0525513,0.0009292383329,745.0525513,0.01354767475,
744.0609131,-0.001250612549,744.0609131,0.01300785132,
743.0689087,0.0006071913522,743.0689087,0.01427124068,
741.9347534,0.001272189547,741.9347534,0.01425433531,
740.9420166,0.001112060039,740.9420166,0.01454011537,
739.9489136,-0.0005417141947,739.9489136,0.0140349362,
738.9554443,-0.0005442995462,738.9554443,0.01355205476,
737.9616699,8.374918252E-5,737.9616699,0.01400114223,
736.9675293,0.001321182353,736.9675293,0.01580040716,
735.9730225,-0.000126046376,735.9730225,0.01559809595,
734.9782104,0.0002954852825,734.9782104,0.0157209523,
733.9830322,-0.0009390588384,733.9830322,0.01472691167,
732.9874878,0.00139048812,732.9874878,0.01617994718,
731.9915771,-0.0003331281478,731.9915771,0.0151244374,
730.9953613,0.001065426157,730.9953613,0.01570702344,
729.9987793,0.0003908209328,729.9987793,0.01635320298,
729.0018921,-0.0002813928295,729.0018921,0.01576137543,
728.0046387,0.0005260366015,728.0046387,0.01659061201,
727.007019,0.0002861859975,727.007019,0.01608900726,
726.0090942,0.0009375656373,726.0090942,0.01750939526,
725.0108032,-0.0006621757057,725.0108032,0.01716111228,
724.012146,-0.0008266835357,724.012146,0.01696032099,
723.0131836,7.947719132E-5,723.0131836,0.0163120795,
722.013855,-0.000710454362,722.013855,0.0174081251,
721.0142212,-9.219603089E-5,721.0142212,0.01687322557,
720.0142212,0.0002363255189,720.0142212,0.01716227084,
719.013916,0.0001048508275,719.013916,0.01657149196,
718.0131836,0.0005416909116,718.0131836,0.01743485406,
717.012207,0.0007692611543,717.012207,0.0178368371,
716.0108643,-8.743399667E-5,716.0108643,0.01735313423,
715.0091553,0.0002507779864,715.0091553,0.01776151359,
714.0071411,6.82925529E-5,714.0071411,0.01809867285,
713.0047607,0.0002704113431,713.0047607,0.01783729531,
712.0020752,0.0002092608047,712.0020752,0.01792436838,
710.9990234,0.0003690576996,710.9990234,0.0184042789,
709.9956665,0.0006530760438,709.9956665,0.01935175434,
708.9919434,0.0004973729374,708.9919434,0.01973278821,
707.987915,-0.0005224786,707.987915,0.01759362407,
706.9835815,-4.64369441E-5,706.9835815,0.01871207356,
705.9788208,4.838356836E-5,705.9788208,0.01882178336,
704.9738159,0.000528032193,704.9738159,0.01889658906,
703.9684448,-0.0007941797376,703.9684448,0.01862905733,
702.9627075,0.0005050440668,702.9627075,0.01913601533,
701.956665,-0.0005549510824,701.956665,0.01874993742,
700.9503174,-0.0001118647488,700.9503174,0.01989654638,
699.9436035,3.743272464E-5,699.9436035,0.01937327161,
698.9365845,-0.0001738671272,698.9365845,0.01943720877,
697.9292603,4.359415834E-5,697.9292603,0.01925717108,
697.0655518,0.0003186177928,697.0655518,0.02024098113,
696.0575562,0.0003981792543,696.0575562,0.01964426972,
695.0492554,0.0004451301647,695.0492554,0.01963124238,
694.0406494,0.0004427462409,694.0406494,0.02027637511,
693.0316772,0.0006561870687,693.0316772,0.02121476643,
692.0223999,0.0005743232905,692.0223999,0.01977952011,
691.0128174,-0.0008883773116,691.0128174,0.02004916966,
690.0028687,0.0001682137081,690.0028687,0.02030927688,
688.9926147,0.0003185141832,688.9926147,0.02010911144,
687.9819946,0.0002302908542,687.9819946,0.0203295406,
686.9711304,2.839783519E-5,686.9711304,0.01943701878,
685.9598389,-0.0009916973067,685.9598389,0.01940678246,
684.9483032,-0.0001513547613,684.9483032,0.02019005083,
683.9364624,0.0004917493206,683.9364624,0.02066213079,
683.0688477,-3.220095095E-5,683.0688477,0.0207437966,
682.0563965,-0.0009802816203,682.0563965,0.02070763148,
681.0435791,-0.0003052953107,681.0435791,0.02015545033,
680.0304565,-0.0002099362318,680.0304565,0.02092040516,
679.0170288,-0.0001379502937,679.0170288,0.02151808515,
678.0032349,0.0003477100399,678.0032349,0.02159417421,
676.9891357,-0.0002362746018,676.9891357,0.02142884955,
675.9747314,-0.0009184976225,675.9747314,0.02128990367,
674.960022,-0.0003087098594,674.960022,0.02125070244,
673.9450073,-0.0001832339913,673.9450073,0.02178743109,
672.9296265,0.0002309901465,672.9296265,0.02146967128,
672.059082,-0.000365925167,672.059082,0.02232656814,
671.0431519,9.60216712E-5,671.0431519,0.02206919901,
670.0268555,-0.0003471473756,670.0268555,0.02162747458,
669.0103149,0.0004758894211,669.0103149,0.02251551673,
667.9934082,0.0007187229348,667.9934082,0.02348209731,
666.9761963,-0.0004942442174,666.9761963,0.02262341045,
665.9586792,0.0006269185687,665.9586792,0.02310816385,
664.9407959,0.0003684099938,664.9407959,0.02230969816,
664.0681152,-0.0008195525734,664.0681152,0.02247233316,
663.0497437,-5.228934242E-6,663.0497437,0.02417154051,
662.0310059,0.00148042792,662.0310059,0.02361474931,
661.0119629,-0.0004249949125,661.0119629,0.02331179194,
659.9925537,-6.70394802E-5,659.9925537,0.02363779023,
658.9729004,-0.0005544857122,658.9729004,0.02338527143,
657.9529419,-0.001198676648,657.9529419,0.02258422598,
656.9326172,-0.00098932127,656.9326172,0.0228533037,
656.0578613,-0.0007276659016,656.0578613,0.02425302006,
655.0369873,0.001826180378,655.0369873,0.02473332174,
654.0158081,0.0002639617596,654.0158081,0.02379906364,
652.9943237,-7.454519073E-5,652.9943237,0.02543858811,
651.9725342,0.001163578476,651.9725342,0.02529212646,
650.9504395,-0.0005963137373,650.9504395,0.02450248413,
649.9280396,0.0003616480681,649.9280396,0.02432509884,
649.0514526,-0.0007351085078,649.0514526,0.02412509918,
648.0284424,0.0004481878714,648.0284424,0.02430415526,
647.005188,-0.0009241804946,647.005188,0.02379083261,
645.9815674,0.0002449244203,645.9815674,0.02486564219,
644.9577026,-0.0003448712232,644.9577026,0.02485788614,
643.9334717,-6.30018767E-5,643.9334717,0.02559957094,
643.0553589,-0.0001893922163,643.0553589,0.02502649464,
642.0306396,0.0003503525513,642.0306396,0.02561414987,
641.0055542,-0.0009089399828,641.0055542,0.02444620617,
639.9801636,-1.806803084E-5,639.9801636,0.02529679053,
638.9545288,-0.0007255984819,638.9545288,0.02571823075,
637.9285278,-0.0001314290566,637.9285278,0.02584854513,
637.0488892,0.0009481240995,637.0488892,0.02670582011,
636.0223999,-9.493935067E-5,636.0223999,0.0253081508,
634.9955444,-0.0002237006847,634.9955444,0.02587568946,
633.9684448,0.0006398286205,633.9684448,0.02662354894,
632.940979,0.0006633683806,632.940979,0.0265910998,
632.0601196,-0.0003116070002,632.0601196,0.02575679496,
631.0321045,-0.0001810604881,631.0321045,0.02537431195,
630.0038452,0.0004251521023,630.0038452,0.02632813901,
628.9752808,0.0001906402176,628.9752808,0.02590226009,
627.9464111,-0.0003464748734,627.9464111,0.02635058388,
627.06427,-0.0003698564833,627.06427,0.02543694153,
626.0348511,-0.0005833366304,626.0348511,0.02566393651,
625.005127,0.000839101267,625.005127,0.02639720775,
623.9750977,-0.0006713253097,623.9750977,0.02531218342,
622.9448242,-0.0003115035361,622.9448242,0.02618420869,
622.0614624,-0.0003093306732,622.0614624,0.02632115409,
621.0306396,-0.0001787834626,621.0306396,0.02637624554,
619.9994507,0.0008642080938,619.9994507,0.0274571795,
618.9680176,3.228100104E-5,618.9680176,0.0268186722,
617.9362793,1.138997504E-5,617.9362793,0.02689897083,
617.0517578,-0.0002687684901,617.0517578,0.02768616937,
616.0194702,-0.00135653012,616.0194702,0.02773726918,
614.9868774,0.0001052392108,614.9868774,0.02879839018,
613.9540405,-0.0003637008485,613.9540405,0.02848867513,
613.0685425,-7.118057692E-5,613.0685425,0.02952716872,
612.0351563,-0.0001611878979,612.0351563,0.02925112844,
611.0014648,-3.62906103E-5,611.0014648,0.03037239425,
609.9674683,-0.0005805963883,609.9674683,0.03063931502,
608.9332275,0.000219646201,608.9332275,0.03164326772,
608.0465088,-0.0001641377894,608.0465088,0.03248124197,
607.0117188,0.0002792699379,607.0117188,0.03266255185,
605.9766235,0.0003048106737,605.9766235,0.03398695588,
604.9412842,0.0002775344765,604.9412842,0.03466844931,
604.0535889,-0.0001884607191,604.0535889,0.03518503159,
603.0177002,-0.0001714348182,603.0177002,0.03568286449,
601.9815674,-0.0003532515257,601.9815674,0.03672255948,
600.9450684,-0.0002126788022,600.9450684,0.03860430047,
600.0564575,4.991101378E-5,600.0564575,0.03966846317,
599.0194702,0.0001383048657,599.0194702,0.04045237973,
597.9822388,0.0001568455191,597.9822388,0.04146562889,
596.9446411,-0.0009932469111,596.9446411,0.04338593036,
596.0551147,0.000152650493,596.0551147,0.04514337331,
595.0170288,-0.0005085167941,595.0170288,0.04606145248,
593.9786987,-0.0007674617227,593.9786987,0.04906062782,
592.9400635,-0.0002676819568,592.9400635,0.05171373859,
592.0495605,-4.49357176E-5,592.0495605,0.05502636358,
591.010437,0.0004117302306,591.010437,0.05792772397,
589.9710083,0.0001549551671,589.9710083,0.06037807465,
588.9312744,0.0009790746262,588.9312744,0.06472659111,
588.039917,-0.0001883572259,588.039917,0.06791584194,
586.9996948,-0.0006249034195,586.9996948,0.07224979997,
585.9591675,5.234458149E-5,585.9591675,0.0781557709,
585.0670776,3.675823109E-6,585.0670776,0.08312176913,
584.026062,-0.0001823542407,584.026062,0.08811974525,
582.9848022,-3.986420779E-6,582.9848022,0.09574363381,
581.9432373,-0.0009385422454,581.9432373,0.09991049767,
581.0502319,-0.0001928076526,581.0502319,0.1075499952,
580.0081787,-0.0001094838444,580.0081787,0.1144569367,
578.9658203,-4.710990834E-5,578.9658203,0.1214243919,
578.0721436,-0.001322207856,578.0721436,0.1247756481,
577.0292969,-0.0001123305774,577.0292969,0.1312079579,
575.9862061,2.078693069E-5,575.9862061,0.1369332224,
574.9428101,0.0001774845732,574.9428101,0.1422913373,
574.0482178,-1.812014034E-6,574.0482178,0.1450750679,
573.0043335,-0.0001091215308,573.0043335,0.1478739977,
571.960144,0.0001018214462,571.960144,0.1509523243,
571.0649414,0.0003526582732,571.0649414,0.1521576494,
570.0202637,0.0005801813095,570.0202637,0.1526804268,
568.9753418,0.0007060179487,568.9753418,0.1523954719,
567.9301147,0.0008223209879,567.9301147,0.1518054903,
567.0339966,-0.0001242866274,567.0339966,0.150749281,
565.9882813,-0.0005442478578,565.9882813,0.1478016376,
564.9423218,-0.000292516459,564.9423218,0.1460380107,
564.0455933,0.0005375440232,564.0455933,0.1454724967,
562.9990845,0.000523315277,562.9990845,0.1423406899,
561.9523926,5.897224037E-5,561.9523926,0.1390459388,
561.0549927,-0.0003176599566,561.0549927,0.136314705,
560.0077515,6.937993749E-5,560.0077515,0.1344650239,
558.9602661,-0.0001123305774,558.9602661,0.1322235763,
558.0621948,0.0001927120175,558.0621948,0.130587846,
557.0142212,-3.354691944E-5,557.0142212,0.1292469203,
555.9659424,-0.0003522169427,555.9659424,0.1272361577,
555.0672607,0.0003983865317,555.0672607,0.126343444,
554.0185547,0.0004190370673,554.0185547,0.1261550039,
552.9695435,-0.001072373125,552.9695435,0.124660261,
552.0701904,2.467002923E-5,552.0701904,0.1258581132,
551.020752,-7.811682735E-5,551.020752,0.126412183,
549.9710083,-3.530702452E-5,549.9710083,0.1270452887,
549.0710449,-0.0001379502937,549.0710449,0.1287444532,
548.020813,0.0001150783719,548.020813,0.130523473,
546.9703369,0.0004619477259,546.9703369,0.1325817704,
546.0697021,-0.0008081324049,546.0697021,0.1332521588,
545.0187988,-0.0005920225522,545.0187988,0.1361077577,
543.9675903,-0.0006276950589,543.9675903,0.1384029686,
543.0663452,-9.281716484E-5,543.0663452,0.140649274,
542.0146484,-0.000295568927,542.0146484,0.141630128,
540.9627075,3.486979767E-5,540.9627075,0.1433508396,
540.0608521,-0.001142655266,540.0608521,0.1435669065,
539.0084229,-0.0001551327878,539.0084229,0.1464410424,
537.9557495,-7.501105574E-5,537.9557495,0.1473582089,
537.0532837,9.760106332E-5,537.0532837,0.1472141296,
536.0001221,-2.288259384E-5,536.0001221,0.1468026191,
534.9467163,6.523753837E-5,534.9467163,0.1463785619,
534.0436401,0.0001401433547,534.0436401,0.145688042,
532.9897461,-0.00064656412,532.9897461,0.1447470784,
531.9356689,-0.0004412868002,531.9356689,0.143158406,
531.0319214,-0.0001938943897,531.0319214,0.1410476118,
529.977356,4.695968528E-5,529.977356,0.1393573433,
529.0732422,-0.0006952580297,529.0732422,0.1372372955,
528.0181885,-0.0001117612264,528.0181885,0.1350807399,
526.9628906,-8.857274952E-5,526.9628906,0.1321687996,
526.0581665,-7.511458534E-5,526.0581665,0.1299508661,
525.0023804,-0.0001538906945,525.0023804,0.1270080507,
523.9464111,-0.0003131073317,523.9464111,0.124428086,
523.0410767,-0.0004028576077,523.0410767,0.1217238605,
521.9846191,-0.0007651360938,521.9846191,0.1192713678,
520.9279175,-0.0006984627107,520.9279175,0.1160306558,
520.0219727,-0.0005035007489,520.0219727,0.1131862998,
518.9647827,-5.415007035E-5,518.9647827,0.1112002879,
518.0584717,-0.0005278046592,518.0584717,0.1086755693,
517.0008545,-0.0006536979927,517.0008545,0.106032297,
515.9429932,0.0004019361513,515.9429932,0.1044842228,
515.0360718,0.0001126703501,515.0360718,0.1021244302,
513.9777222,-5.777363913E-5,513.9777222,0.1006827876,
513.0704346,-0.0009421584546,513.0704346,0.09751045704,
512.0116577,-8.013556362E-5,512.0116577,0.09701372683,
510.9526672,3.065006968E-5,510.9526672,0.09529210627,
510.0447693,-3.292570182E-5,510.0447693,0.09460867196,
508.985321,-0.0004624912108,508.985321,0.09234172106,
507.9256287,7.038965123E-5,507.9256287,0.0920022279,
507.0171204,-0.0008220329182,507.0171204,0.08986473829,
505.9570007,-0.000811336271,505.9570007,0.08928792179,
505.0481262,7.572305913E-5,505.0481262,0.08939101547,
503.9875488,-3.696358908E-5,503.9875488,0.08880863339,
502.9267273,0.0005831880844,502.9267273,0.08820200711,
502.0172729,-0.0004609914322,502.0172729,0.08819375932,
500.9560242,-0.000676856318,500.9560242,0.08668834716,
500.0462036,-4.524631731E-5,500.0462036,0.08727282286,
498.9844971,-0.0004852460406,498.9844971,0.08702491224,
498.0742798,-0.000490727718,498.0742798,0.08603361249,
497.012146,1.115699524E-5,497.012146,0.08679616451,
495.9497986,-8.784809324E-5,495.9497986,0.08613927662,
495.0390015,7.448031829E-5,495.0390015,0.08646830171,
493.9762268,0.000363098894,493.9762268,0.08652858436,
493.0650635,-0.00043523559,493.0650635,0.08603152633,
492.0018311,-0.0002388100402,492.0018311,0.08664770424,
490.9383545,0.0001332037355,490.9383545,0.08697813004,
490.0266418,0.0002739858464,490.0266418,0.08685892075,
488.9627686,0.0001770443341,488.9627686,0.08820559084,
488.0506592,0.000382089609,488.0506592,0.08865839988,
486.9863586,0.0003491608368,486.9863586,0.08834690601,
486.0738831,0.0001361297473,486.0738831,0.08788886666,
485.0091553,-7.801329775E-5,485.0091553,0.08954400569,
483.9441833,0.0007575142081,483.9441833,0.08974517882,
483.0311584,-0.0004291842924,483.0311584,0.08958740532,
481.9657593,0.0004347912036,481.9657593,0.09108915925,
481.0523682,-0.0008206377388,481.0523682,0.0908004418,
479.9865417,-7.837564044E-5,479.9865417,0.0924686268,
479.0728149,0.0002575640974,479.0728149,0.0936422199,
478.0065918,-0.000206106939,478.0065918,0.09444403648,
476.9401245,9.716090426E-5,476.9401245,0.09559827298,
476.0258179,3.261754318E-5,476.0258179,0.09688846022,
474.9589233,-5.63759786E-5,474.9589233,0.09949997067,
474.044281,0.0001609111059,474.044281,0.1008147374,
472.9769897,-0.0002181639138,472.9769897,0.1027683467,
472.0619812,-0.0005699972389,472.0619812,0.1047217175,
470.9942627,-0.0005788902054,470.9942627,0.1064771339,
469.9263306,-5.021848665E-6,469.9263306,0.1102299094,
469.0108032,-7.185350114E-5,469.0108032,0.1136484891,
467.9424438,2.925124363E-6,467.9424438,0.1166455597,
467.0265503,-0.0005825611297,467.0265503,0.12020161,
465.9577942,3.896013004E-5,465.9577942,0.123671107,
465.0415344,5.350959327E-5,465.0415344,0.1287299246,
463.9723816,-0.0005768220872,463.9723816,0.1334100217,
463.0557861,-0.0005755812163,463.0557861,0.1384195238,
461.9862061,-0.0001576686918,461.9862061,0.1443009377,
461.0692749,-0.000171383057,461.0692749,0.1487835646,
459.9992981,-0.0001438503823,459.9992981,0.1562929004,
458.9291077,-0.0001085521872,458.9291077,0.1637213975,
458.0116272,0.0005578123964,458.0116272,0.1712783277,
456.94104,0.0002788554993,456.94104,0.1791039705,
456.0232239,-0.0008076156373,456.0232239,0.1846216023,
454.95224,-0.0004421143094,454.95224,0.1944297105,
454.0340576,7.763895701E-5,454.0340576,0.2034232765,
452.962677,0.0002549739729,452.962677,0.2138614804,
452.0441589,-0.0006334851496,452.0441589,0.222463578,
450.9723816,-0.0001491293369,450.9723816,0.2354899496,
450.0535583,-8.282720228E-5,450.0535583,0.2452758253,
448.9813538,-0.001014424372,448.9813538,0.2582761049,
448.0621948,-0.0004749030923,448.0621948,0.2751142681,
446.989624,-0.0001575134374,446.989624,0.2901364565,
446.0700989,-5.358065027E-5,446.0700989,0.3053726554,
444.9971313,5.731531564E-5,444.9971313,0.3254008591,
443.9239502,-6.947237853E-5,443.9239502,0.3462190926,
443.0039368,-0.0001193696808,443.0039368,0.3671880662,
441.9303589,-4.974998228E-5,441.9303589,0.3925857544,
441.0100098,0.0001514075266,441.0100098,0.4190410376,
439.9360657,-0.0008355196333,439.9360657,0.4517255127,
439.0153809,8.517318929E-5,439.0153809,0.4767745137,
437.94104,-0.0007420858601,437.94104,0.5165614486,
437.0200195,-0.0004311497032,437.0200195,0.5613753796,
435.945282,-0.0001499056525,435.945282,0.6092904806,
435.0239563,-0.0009601356578,435.0239563,0.6563901901,
433.9488525,0.000184528486,433.9488525,0.7131665349,
433.0271606,-0.0002680441248,433.0271606,0.769069612,
431.9516907,-3.856838157E-5,431.9516907,0.8347005248,
431.0296936,-0.0005458507803,431.0296936,0.9044150114,
429.9538269,0.0001799706515,429.9538269,0.9778859615,
429.0315247,5.280769528E-6,429.0315247,1.043555379,
427.9552917,0.0001476268808,427.9552917,1.109042883,
427.0326538,-0.0002952067589,427.0326538,1.17901063,
425.9560242,-4.550514859E-5,425.9560242,1.24718678,
425.0330811,-5.492654964E-5,425.0330811,1.299392581,
423.9560852,-0.0001439538901,423.9560852,1.361711621,
423.0328064,-0.0001983965049,423.0328064,1.395044208,
421.9554443,0.0001765004999,421.9554443,1.425209165,
421.0318604,-6.201834913E-5,421.0318604,1.44649303,
419.9541321,-0.0002131962683,419.9541321,1.454143763,
419.0302124,7.256442768E-5,419.0302124,1.452415824,
417.9521484,0.0002358075144,417.9521484,1.436802506,
417.0278931,-0.0004436141753,417.0278931,1.413921356,
415.9494629,0.0002214850392,415.9494629,1.374941587,
415.0249023,7.51275802E-5,415.0249023,1.326452136,
413.946106,-0.0003001217265,413.946106,1.281789422,
413.0212402,0.0002111255017,413.0212402,1.233957171,
411.9420776,0.000111246256,411.9420776,1.190787554,
411.0169067,-0.001171570388,411.0169067,1.12936306,
409.9373779,-0.000200259441,409.9373779,1.067980051,
409.0119019,-6.579714682E-5,409.0119019,1.022877574,
407.9320068,-7.69780454E-5,407.9320068,0.9737632275,
407.0062256,-0.0001000118646,407.0062256,0.9390172958,
405.9259644,-0.0001451442513,405.9259644,0.8913820386,
404.9998779,-0.0002006734285,404.9998779,0.8472003937,
404.0736694,5.306656021E-6,404.0736694,0.8101801276,
402.9928894,0.0003497566795,402.9928894,0.7702616453,
402.0663452,0.000352891424,402.0663452,0.7435324192,
400.9852295,-1.822333979E-5,400.9852295,0.7107011676,
400.0584106,-0.0008965404704,400.0584106,0.6754553318,
398.9769287,-0.0004500272917,398.9769287,0.6463942528,
398.0498047,0.0004438604519,398.0498047,0.6225628853,
396.9679871,-0.000363752566,396.9679871,0.5975410342,
396.0405579,-0.0005642063334,396.0405579,0.5768515468,
394.958374,-0.0002109194174,394.958374,0.5517506003,
394.0306702,0.0001149230156,394.0306702,0.5273855329,
392.9481506,-0.0003395946405,392.9481506,0.5085392594,
392.0201111,-9.923546168E-5,392.0201111,0.4933543801,
390.9372559,8.4344676E-5,390.9372559,0.475528568,
390.0089417,-0.0002410350135,390.0089417,0.4601316452,
388.9257507,0.0001827675005,388.9257507,0.444604665,
387.9971619,-0.000222614035,387.9971619,0.4307453036,
387.0684204,-5.264886931E-5,387.0684204,0.4223927259,
385.9847107,-0.0007775392733,385.9847107,0.408277303,
385.0556946,-0.0004121161182,385.0556946,0.3994805813,
383.9716492,-0.000500863418,383.9716492,0.3890175521,
383.0423279,-0.0004732481902,383.0423279,0.3830791116,
381.9579468,-0.0003893574758,381.9579468,0.3746581376,
381.0283508,-0.0005525209126,381.0283508,0.3728902042,
379.943634,-0.0003777190577,379.943634,0.368252635,
379.0137634,0.0005721978378,379.0137634,0.3649990559,
377.9287109,-1.221800539E-5,377.9287109,0.3633030057,
376.9985352,-0.0001034797751,376.9985352,0.3626197577,
376.0682373,0.0001019768024,376.0682373,0.3620148599,
374.9827271,-0.0001478354825,374.9827271,0.3635611832,
374.052124,-0.0001041008873,374.052124,0.3654044271,
372.9662781,-0.0006100659957,372.9662781,0.3673199117,
372.0354004,-0.0004318737774,372.0354004,0.3705227077,
370.9492493,-0.0002420698729,370.9492493,0.3736646771,
370.0180969,-0.0006557657034,370.0180969,0.3780596256,
368.9315796,-0.0004628015158,368.9315796,0.3828193843,
368.0001831,-0.0004090127186,368.0001831,0.3876552284,
367.068634,7.251265197E-5,367.068634,0.3913095593,
365.9816589,0.0007885808591,365.9816589,0.3959674239,
365.0498352,0.0001394442079,365.0498352,0.4002605975,
363.9625244,-0.0008526745369,363.9625244,0.4029986262,
363.030426,-0.0007396049914,363.030426,0.4060968161,
361.9428406,-0.0004632152559,361.9428406,0.4087753892,
361.0104675,-0.0002020188695,361.0104675,0.4105989337,
359.9225159,-0.0002369472786,359.9225159,0.41111359,
358.9898987,-0.0001362941257,358.9898987,0.4121949673,
358.0571289,0.0002397702483,358.0571289,0.4110818505,
356.96875,0.0004072218144,356.96875,0.4080682397,
356.0357056,0.0001394959982,356.0357056,0.4065474868,
354.9470215,-0.0004139264056,354.9470215,0.402130872,
354.0137024,-0.0001672946673,354.0137024,0.3987743855,
352.9247131,-0.0001035832902,352.9247131,0.3924463689,
351.9911194,-0.0002276333107,351.9911194,0.3860584497,
351.0574341,0.0003600677301,351.0574341,0.3814153671,
349.9679871,-0.0004181676486,349.9679871,0.3745218217,
349.0340271,-0.0002630253148,349.0340271,0.3673471212,
347.9442749,0.0001451927819,347.9442749,0.3596159518,
347.0100708,0.0005418983055,347.0100708,0.3536302149,
346.0757141,-0.0001238725818,346.0757141,0.3474098146,
344.9855347,-0.0004145470739,344.9855347,0.3413283527,
344.0509338,-0.0009210290737,344.0509338,0.3330191076,
342.9604187,-0.0002495725639,342.9604187,0.3251326978,
342.0255737,0.0005621668533,342.0255737,0.3195091188,
340.9347534,-0.0004225639859,340.9347534,0.310139358,
339.9996643,0.0001448043622,339.9996643,0.3036360741,
339.0644226,-0.0001226821623,339.0644226,0.2972989082,
337.973175,-0.0006368970498,337.973175,0.2869505286,
337.0377197,-0.0002006734285,337.0377197,0.2810479403,
335.946167,-0.0009898378048,335.946167,0.271656543,
335.010437,6.518576265E-5,335.010437,0.26626423,
334.074585,-0.0008324192604,334.074585,0.2593364716,
332.9826355,-0.0004967264249,332.9826355,0.2517923713,
332.0465393,-0.0005450751632,332.0465393,0.2433440536,
330.9542847,8.395630721E-5,330.9542847,0.2373242974,
330.0179138,-0.0004245293967,330.0179138,0.2312279344,
328.9253845,0.001383580384,328.9253845,0.2242544442,
327.9888,5.25488349E-6,327.9888,0.2165986896,
327.0520935,-0.0001521828235,327.0520935,0.2131104618,
325.9591064,-0.0001064300595,325.9591064,0.2045987397,
325.0221558,9.397623217E-5,325.0221558,0.2002598792,
323.928894,-0.0002142312005,323.928894,0.1945252717,
322.9916992,-0.0005804413231,322.9916992,0.1898810416,
322.0544128,2.376396878E-5,322.0544128,0.1861547679,
320.9607544,-0.0002642670879,320.9607544,0.1821549684,
320.0231934,-0.000136966948,320.0231934,0.1795415878,
318.9292603,-0.0004171331821,318.9292603,0.1769307554,
317.9914551,0.0003372697684,317.9914551,0.1746762544,
317.0535583,-0.0004703520972,317.0535583,0.1733478904,
315.959198,-0.0004888660042,315.959198,0.1734613776,
315.0210876,-8.381067892E-5,315.0210876,0.1730721295,
313.9264526,-0.0002111781505,313.9264526,0.1745205522,
312.9880676,-0.000599260733,312.9880676,0.1769748032,
312.0495911,-0.0001920314244,312.0495911,0.1797738224,
310.9545593,-0.0002421216195,310.9545593,0.1852798462,
310.0158386,-0.0004358562292,310.0158386,0.1891254336,
309.0770264,-0.0004437693278,309.0770264,0.1969138086,
307.9815979,-0.0005842155661,307.9815979,0.2071024925,
307.0425415,-0.0006050511147,307.0425415,0.2179266959,
305.9468689,-0.0002897743834,305.9468689,0.2327888459,
305.0075684,-0.0003334385401,305.0075684,0.2479006946,
304.0681763,5.648685692E-5,304.0681763,0.2645469606,
302.9721069,-0.0003715635103,302.9721069,0.2866716385,
302.0325012,-0.0008401701343,302.0325012,0.3091990054,
300.9361267,-0.0007886502426,300.9361267,0.3365672231,
299.9963074,-0.000332869502,299.9963074,0.3552058637,
299.056366,7.082978846E-5,299.056366,0.3855563402,
297.9596252,-0.0001286859624,297.9596252,0.4231168926,
297.0194397,-0.000458509021,297.0194397,0.4521531165,
295.9224548,3.743272464E-5,295.9224548,0.4977776408,
294.9820557,-4.100143997E-5,294.9820557,0.5270301104,
294.0415649,0.0001584251295,294.0415649,0.571364522,
292.9442139,1.434106343E-5,292.9442139,0.6132986546,
292.003479,-0.0002383443498,292.003479,0.6359191537,
291.0626831,-0.0002074523654,291.0626831,0.6563435793,
289.9649353,-2.526397111E-5,289.9649353,0.6877621412,
289.0238953,-4.664401058E-5,289.0238953,0.7393927574,
287.9259033,-0.0002184226323,287.9259033,0.7776094079,
286.9846497,0.0001128515942,286.9846497,0.8161484599,
286.0433044,9.674664034E-5,286.0433044,0.8424909711,
284.9449463,-0.0003575450974,284.9449463,0.8561546206,
284.0033569,-0.0002553676313,284.0033569,0.8618198037,
283.0617065,-0.0002175429545,283.0617065,0.8677601218,
281.9629822,-0.0004544233088,281.9629822,0.8711483479,
281.0211182,-0.0008391883457,281.0211182,0.8728891015,
279.9221191,-0.0004895383026,279.9221191,0.8726002574,
278.9800415,0.0003063649347,278.9800415,0.8686526418,
278.0378723,0.000257926702,278.0378723,0.8581600785,
276.9385376,-0.000633898715,276.9385376,0.8459215164,
275.9961548,-0.0001229409536,275.9961548,0.8320477009,
275.0536804,6.47456327E-5,275.0536804,0.8201554418,
273.9539795,0.0003262857499,273.9539795,0.7963044047,
273.0112915,-0.001435745042,273.0112915,0.7817696929,
272.068512,-0.0004410799302,272.068512,0.7694995999,
270.9684753,0.001472142176,270.9684753,0.7557452917,
270.0254822,-0.000240776295,270.0254822,0.740560472,
268.9252014,-0.0005372156156,268.9252014,0.7133803964,
267.9820251,1.651556158E-5,267.9820251,0.693637073,
267.0387573,0.001044744859,267.0387573,0.6779708266,
265.9381409,0.0008212576504,265.9381409,0.660764575,
264.9946594,-0.001457416918,264.9946594,0.6373455524,
264.0510864,-0.0008326259558,264.0510864,0.6181225181,
262.9501343,-0.0008824356482,262.9501343,0.6016992927,
262.0063477,-0.0006023110473,262.0063477,0.5928807259,
261.0625,0.0002780784271,261.0625,0.5881232619,
259.9612122,-0.000115953655,259.9612122,0.574467659,
259.0171509,-0.0005779078347,259.0171509,0.5514010191,
258.072998,-0.002011179924,258.072998,0.5398621559,
256.9713745,-0.002874319442,256.9713745,0.5280670524,
256.0270386,-0.0008593916427,256.0270386,0.5275096893,
254.9252014,-0.0005645682686,254.9252014,0.5262231827,
253.9806671,-0.0003397498222,253.9806671,0.5277480483,
253.0360413,0.000374757481,253.0360413,0.5296918154,
251.9338837,0.0002559841087,251.9338837,0.5354120731,
250.9890747,-0.0002912747732,250.9890747,0.5490620732,
250.0441742,-0.0004391662951,250.0441742,0.5665292144,
248.947998,-0.0002481237752,248.947998,0.5946726799,
248.0085449,-0.0009335312061,248.0085449,0.6159238815,
247.0690155,-0.0008126281318,247.0690155,0.6577327847,
245.9727936,0.0006840833812,245.9727936,0.7138972282,
245.0330658,-0.0001523380924,245.0330658,0.7850800753,
243.9366302,-0.0001337580907,243.9366302,0.8801037669,
242.9967346,-5.849834997E-5,242.9967346,0.9731209278,
242.0567474,-0.001108057797,242.0567474,1.101061344,
240.9600067,-0.0005592426169,240.9600067,1.278371334,
240.0198364,0.000300329295,240.0198364,1.449318767,
238.9228821,-0.0002692858689,238.9228821,1.792327404,
237.9825439,-0.0004652322095,237.9825439,1.945183039,
237.0421143,5.969714402E-5,237.0421143,2.205730677,
235.9448547,-0.0007358837756,235.9448547,2.569372892,
235.0042572,0.0006662202068,235.0042572,2.768315792,
234.0635834,0.0003582024074,234.0635834,2.463245153,
232.9660187,0.0003560261976,232.9660187,2.703449011,
232.025177,-0.0001561678509,232.025177,2.740582466,
230.9274139,0.0001311840169,230.9274139,3.011695623,
229.9863892,-0.001313433284,229.9863892,2.489246845,
229.0452728,-0.003043338424,229.0452728,3.298059225,
227.9472198,0.006170947105,227.9472198,3.337936163,
227.0059509,0.0008660756284,227.0059509,3.398768187,
226.0646057,0.00398974726,226.0646057,3.408515692,
224.9662628,-0.001837789197,224.9662628,3.14800787,
224.0247345,-0.02115091681,224.0247345,3.328947783,
222.9261932,-0.01522961166,222.9261932,3.222620726,
221.9845123,0.007430980448,221.9845123,3.41292882,
221.0427551,0.01179796923,221.0427551,2.909875154,
219.943924,0.00285894284,219.943924,2.248609066,
219.0019989,0.01565546729,219.0019989,1.921177983,
218.0599976,0.02281789109,218.0599976,1.996682644,
216.960907,-0.00696026627,216.960907,2.227166891,
216.0187378,0.04268623143,216.0187378,1.733720183,
215.0765076,0.03606095538,215.0765076,1.27862823,
213.9771271,-0.006408037618,213.9771271,0.9948487282,
213.034729,-0.001407827949,213.034729,10,
211.9351807,0.09786563367,211.9351807,1.186334252,
210.9926147,-0.07719923556,210.9926147,10,
210.0499878,-0.07357251644,210.0499878,0.9117144942,
208.9501648,0.004689987749,208.9501648,0.7720308304,
208.0073853,0.06540890038,208.0073853,1.309484482,
207.0645294,-0.01819981076,207.0645294,0.3726495504,
205.9644318,0.1722470373,205.9644318,1.331955314,
205.0214233,0.2811617851,205.0214233,1.43662703,
204.0783539,0.1008777544,204.0783539,0.5886878967,
202.9779968,0.04240689427,202.9779968,0.3691601753,
202.0347748,-0.05562154949,202.0347748,0.2584118843,
200.9342499,0.006253662985,200.9342499,0.5179383159,
199.9907532,0.05392804742,199.9907532,0.3482790291,

baseline,
baseline
Collection Time: 01/07/2019 14:37:49
Operator Name  :
Scan Software Version: 3.00(339)
Parameter List :
Instrument                        Cary 50
Instrument Version                3.00
Start (nm)                        800.0
Stop (nm)                         200.0
X Mode                            Nanometers
Y Mode                            Abs
UV-Vis Scan Rate (nm/min)         4800.00
UV-Vis Data Interval (nm)         1.00
UV-Vis Ave. Time (sec)            0.0125
Beam Mode                         Dual Beam
Baseline Correction               On
Baseline Type                     Baseline correction
Baseline File Name
Baseline Std Ref File Name
Cycle Mode                        Off
Comments
Method Log     :
Method Name    :
Date/Time stamp: 25/06/2019 14:37:30
Method Modifications:
Common Interval nm Changed: 01/07/2019 14:37:33, Old:     5.00, New:     1.00
Baseline Correction Changed: 01/07/2019 14:37:33, Old:0, New:1
Storage Changed: 01/07/2019 14:37:33, Old:1, New:0
End Method Modifications
<Current Wavelength> , 203.0

bm3,
bm3
Collection Time: 01/07/2019 14:38:08
Operator Name  :
Scan Software Version: 3.00(339)
Parameter List :
Instrument                        Cary 50
Instrument Version                3.00
Start (nm)                        800.0
Stop (nm)                         200.0
X Mode                            Nanometers
Y Mode                            Abs
UV-Vis Scan Rate (nm/min)         4800.00
UV-Vis Data Interval (nm)         1.00
UV-Vis Ave. Time (sec)            0.0125
Beam Mode                         Dual Beam
Baseline Correction               On
Baseline Type                     Baseline correction
Baseline File Name
Baseline Std Ref File Name
Cycle Mode                        Off
Comments
Method Log     :
Method Name    :
Date/Time stamp: 25/06/2019 14:37:30
Method Modifications:
Common Interval nm Changed: 01/07/2019 14:37:33, Old:     5.00, New:     1.00
Baseline Correction Changed: 01/07/2019 14:37:33, Old:0, New:1
Storage Changed: 01/07/2019 14:37:33, Old:1, New:0
End Method Modifications
<Current Wavelength> , 203.0

