baseline,,sample,,
Wavelength (nm),Abs,Wavelength (nm),Abs,
800.0159912,0.001435157028,800.0159912,0.007387033664,
799.0429077,-0.0008692087722,799.0429077,0.00481262384,
798.069397,0.0002590663789,798.069397,0.005898281466,
796.9564209,0.0004966732231,796.9564209,0.00622411957,
795.9821167,-5.389124271E-5,795.9821167,0.005125835072,
795.0074463,0.0006237818743,795.0074463,0.006734591443,
794.0324707,0.0004552620812,794.0324707,0.005912083667,
793.0570068,-0.0003222125233,793.0570068,0.00738616474,
791.9418335,-4.659471813E-7,791.9418335,0.006599742454,
790.9656372,-0.0004788334481,790.9656372,0.006645108107,
789.9890137,0.000352528732,789.9890137,0.006800822448,
789.012085,-3.069967352E-5,789.012085,0.005850763526,
788.034729,-0.0001110883677,788.034729,0.006092657801,
787.0570679,-0.0006351394113,787.0570679,0.006642453372,
785.939209,-0.0001890299754,785.939209,0.006844789255,
784.9607544,-0.00026374968,784.9607544,0.007155969739,
783.9818726,-0.0001857179886,783.9818726,0.006523713935,
783.0026245,0.001429547206,783.0026245,0.006772109773,
782.0230103,0.00121499924,782.0230103,0.006361742038,
781.0430298,0.001102042501,781.0430298,0.007417709101,
780.0626831,0.0004257739638,780.0626831,0.008006625809,
778.9418945,0.0004702919687,778.9418945,0.007272118237,
777.9607544,0.0005775114987,777.9607544,0.008489131927,
776.979248,0.00123410509,776.979248,0.008417126723,
775.9973755,0.0007295613177,775.9973755,0.007855881937,
775.0151367,0.0004449487897,775.0151367,0.007812155411,
774.0325317,0.0001066891782,774.0325317,0.00644473033,
773.0495605,-0.002453311812,773.0495605,0.005862386432,
772.0662842,0.0006326736184,772.0662842,0.008068225347,
770.9420166,-0.0001299281284,770.9420166,0.008650763892,
769.9578857,-8.831394371E-5,769.9578857,0.006976637058,
768.9734497,0.0002471518819,768.9734497,0.008212685585,
767.9885864,5.767776747E-5,767.9885864,0.00837978255,
767.003418,-0.0008072022465,767.003418,0.007867585868,
766.0178223,-0.0001169370589,766.0178223,0.00861868076,
765.0319214,-0.0002210616658,765.0319214,0.008352469653,
764.0456543,-0.0004813674605,764.0456543,0.009519701824,
763.059021,-0.0003699082299,763.059021,0.009197754785,
761.9309692,0.0001369842648,761.9309692,0.009654957801,
760.9435425,0.0003451193916,760.9435425,0.01066179853,
759.9557495,-0.0005239264574,759.9557495,0.00931124948,
758.9676514,0.0001202828644,758.9676514,0.009881396778,
757.979126,-0.0009937634459,757.979126,0.009162194096,
756.9902954,0.0002995780669,756.9902954,0.00980492495,
756.0010986,-0.0008410485461,756.0010986,0.01007242501,
755.0115356,-0.0004910897114,755.0115356,0.00924788788,
754.0216064,0.000789981219,754.0216064,0.01077734865,
753.0313721,0.001600965741,753.0313721,0.01184193883,
752.0407104,-0.000533544342,752.0407104,0.01220003702,
751.0497437,0.0001247882901,751.0497437,0.01133077312,
750.0584106,0.0001103917966,750.0584106,0.01126201451,
749.0667114,0.00019486151,749.0667114,0.01207039971,
747.9329224,4.522514064E-5,747.9329224,0.01193859335,
746.9404907,-0.000297276245,746.9404907,0.01225981023,
745.9476318,0.0002221325267,745.9476318,0.01254529413,
744.9545288,-0.001388630713,744.9545288,0.01223648619,
743.9609985,-0.0005937287351,743.9609985,0.01164149027,
742.9671631,-0.0005520555424,742.9671631,0.01326889824,
741.9729614,-0.000252884056,741.9729614,0.01295162831,
740.9783936,-4.343448381E-5,740.9783936,0.01340887882,
739.9834595,-6.274305633E-5,739.9834595,0.01376602612,
738.9882202,0.0005692170234,738.9882202,0.01416911837,
737.9926147,0.0001115569612,737.9926147,0.01428491063,
736.9966431,0.0007147039869,736.9966431,0.01528914832,
736.0003662,-7.956617628E-5,736.0003662,0.01409867965,
735.0037231,0.0002268203098,735.0037231,0.01543868612,
734.0067139,-0.0008585649193,734.0067139,0.0145056136,
733.0093384,0.0003827891487,733.0093384,0.01547165215,
732.0116577,0.0005547539331,732.0116577,0.01465552486,
731.0136108,-0.0001003224243,731.0136108,0.01513521187,
730.0152588,0.0002774308668,730.0152588,0.01642901078,
729.0165405,-0.000309123745,729.0165405,0.01537069585,
728.0174561,0.0002987750631,728.0174561,0.01576274447,
727.0180664,0.0007154299528,727.0180664,0.01653475687,
726.0183105,-0.0006506480277,726.0183105,0.01566075534,
725.0181885,-0.0004394249117,725.0181885,0.01596424729,
724.0177612,-0.0003396981047,724.0177612,0.0166080948,
723.0169678,-0.0002232867264,723.0169678,0.01627004705,
722.0158691,0.0001804108906,722.0158691,0.01712683216,
721.0144043,0.0002423343685,721.0144043,0.01739454456,
720.0125732,0.0003077119472,720.0125732,0.017306339,
719.010437,0.0002792958403,719.010437,0.01698217727,
718.0079346,0.000108216831,718.0079346,0.01761820912,
717.005127,-2.981961188E-5,717.005127,0.01742326841,
716.0019531,-0.0004658527905,716.0019531,0.01705068909,
714.9984741,0.0002749442356,714.9984741,0.01706902497,
713.9946289,0.000334238779,713.9946289,0.01753809862,
712.9904785,-0.0002150591463,712.9904785,0.0170638822,
711.9859619,-0.0003731670731,711.9859619,0.01806172729,
710.9811401,-0.0009647331899,710.9811401,0.01782186888,
709.9759521,-1.144144699E-5,709.9759521,0.01819902286,
708.9703979,-0.0001331370149,708.9703979,0.01837775856,
707.9645386,0.000497010129,707.9645386,0.01897240803,
706.958374,0.000312115706,706.958374,0.01892316714,
705.9518433,0.0004460889322,705.9518433,0.01962823607,
704.9450073,-0.0008976771496,704.9450073,0.01803471707,
703.9378052,0.0001224837906,703.9378052,0.01860711724,
702.9302979,-2.055297227E-5,702.9302979,0.01894698851,
702.0664673,-0.0002282025089,702.0664673,0.01916780323,
701.0583496,0.0002365586261,701.0583496,0.0186226815,
700.0498657,-0.0001542012178,700.0498657,0.01871118136,
699.0410767,-0.000531372556,699.0410767,0.01931281015,
698.0319214,-0.0001894439629,698.0319214,0.01943978108,
697.0224609,-0.0004071506846,697.0224609,0.01919288188,
696.0126953,6.055150152E-5,696.0126953,0.02004277147,
695.0026245,-4.431451816E-5,695.0026245,0.01973536052,
693.9921265,0.0003142139758,693.9921265,0.01992849819,
692.9813843,0.0007455341984,692.9813843,0.02024993114,
691.9702759,9.309592133E-5,691.9702759,0.01994773932,
690.9588623,-0.000412685069,690.9588623,0.0208815895,
689.9471436,0.0002258879249,689.9471436,0.02010846138,
688.9350586,-0.0003290930181,688.9350586,0.01980084181,
688.0673218,0.0002961328719,688.0673218,0.01992402598,
687.0546265,0.0002874552447,687.0546265,0.02079126239,
686.041626,0.0005746083916,686.041626,0.02084128559,
685.0283203,-0.0002022776171,685.0283203,0.02026761509,
684.0146484,0.001210975694,684.0146484,0.02100508101,
683.0006714,-0.0003889436484,683.0006714,0.02037204988,
681.9863892,0.0008612771635,681.9863892,0.02229621075,
680.9718018,-0.0001489223214,680.9718018,0.02127465233,
679.9568481,-0.0005823543179,679.9568481,0.02061706781,
678.9415894,0.0007936378242,678.9415894,0.02184785903,
678.071106,-0.0006394818774,678.071106,0.02101209201,
677.0552368,0.001129526296,677.0552368,0.02276973985,
676.0391235,-0.0007094205939,676.0391235,0.02178264037,
675.022583,-0.0006214396562,675.022583,0.02164268307,
674.0057983,-0.0009690723382,674.0057983,0.02222809196,
672.9886475,0.0001775363635,672.9886475,0.02219779603,
671.9712524,-0.0005079996772,671.9712524,0.0216750633,
670.9534912,-0.0002835658379,670.9534912,0.02303546667,
669.9353638,0.001234338735,669.9353638,0.02482556924,
669.0625,1.959612018E-5,669.0625,0.0228151083,
668.0438232,-0.0004871594429,668.0438232,0.02305416577,
667.0248413,8.982523468E-6,667.0248413,0.02442142367,
666.0055542,-0.0002827380376,666.0055542,0.02412871271,
664.9859619,-0.0004198744718,664.9859619,0.02383619733,
663.9660034,-0.0008218779112,663.9660034,0.02347911894,
662.9458008,-0.0005909368629,662.9458008,0.02382052876,
662.0710449,-0.0004040472559,662.0710449,0.0242594257,
661.0502319,-0.0008261668263,661.0502319,0.02399817295,
660.0291138,0.0002085097512,660.0291138,0.0244350601,
659.0076904,-4.038192401E-6,659.0076904,0.02412819117,
657.9859009,0.0003346791782,657.9859009,0.02498901077,
656.9638672,0.00031105362,656.9638672,0.02484766208,
655.9414673,0.0001408684038,655.9414673,0.02512826771,
655.0648804,-0.0002172324748,655.0648804,0.02472381294,
654.0419312,-0.0005605352926,654.0419312,0.02587360144,
653.0186768,-0.0004888143158,653.0186768,0.02449002303,
651.9951172,-0.0004902105429,651.9951172,0.02662208863,
650.9712524,-1.035437549E-6,650.9712524,0.02595424838,
649.9470825,-0.0006423768355,649.9470825,0.02628710493,
649.0689697,-0.0006788205355,649.0689697,0.02601267584,
648.0442505,-0.001652621781,648.0442505,0.02445852943,
647.019165,-0.0007615701179,647.019165,0.02551413141,
645.9938354,-3.365045632E-5,645.9938354,0.02610882372,
644.9681396,4.276572508E-5,644.9681396,0.02682993375,
643.9421997,-0.001075007021,643.9421997,0.02535329014,
643.062561,-3.318454401E-5,643.062561,0.02636477537,
642.0360107,-0.0006759258686,642.0360107,0.02679229341,
641.0091553,-7.21123215E-5,641.0091553,0.0260029193,
639.9820557,9.257809143E-5,639.9820557,0.02653248608,
638.9545898,-0.0002412419853,638.9545898,0.02685796469,
637.9268799,-0.000126408675,637.9268799,0.02670551836,
637.0457153,8.931577759E-5,637.0457153,0.02769499831,
636.017395,0.0009528456721,636.017395,0.02805327065,
634.9887695,0.0005697095185,634.9887695,0.02834303118,
633.9598999,2.782830779E-5,633.9598999,0.02759289928,
632.9306641,-0.0001741776359,632.9306641,0.02753445134,
632.0482788,3.398960689E-5,632.0482788,0.02819486707,
631.0184937,-0.0008749439148,631.0184937,0.02642372623,
629.9884644,-0.0003962886403,629.9884644,0.02745786868,
628.9581299,-0.000169571751,628.9581299,0.02741554193,
627.9274902,-0.0004665251181,627.9274902,0.0277499631,
627.0438232,-0.001064419863,627.0438232,0.02681178786,
626.0126343,-0.000159480056,626.0126343,0.02812090144,
624.9811401,0.0001812913833,624.9811401,0.02828929015,
623.9493408,-6.196658796E-5,623.9493408,0.02825235389,
623.0647583,-0.0001175063953,623.0647583,0.02831338346,
622.0324097,-0.0003984610667,622.0324097,0.02763800137,
620.9997559,-0.0001299281284,620.9997559,0.02874802426,
619.9668579,0.0001638632093,619.9668579,0.02908917516,
618.9336548,-0.0006874529063,618.9336548,0.02877814323,
618.0477905,-0.0006241279771,618.0477905,0.02880690992,
617.0140381,0.0001806180662,617.0140381,0.03007289954,
615.9799805,0.0001781060855,615.9799805,0.03055782244,
614.9456787,-0.001346466015,614.9456787,0.02972828597,
614.0588379,0.0002884395653,614.0588379,0.03120026924,
613.0239868,5.806610716E-5,613.0239868,0.03164744377,
611.9888306,8.211805107E-5,611.9888306,0.03230556101,
610.9533691,0.000565510476,610.9533691,0.03306111693,
610.0656128,0.0002538084227,610.0656128,0.03313986957,
609.0296021,0.0003886186751,609.0296021,0.03446074575,
607.9933472,0.0005813736352,607.9933472,0.03556749225,
606.9567871,0.0002530313795,606.9567871,0.03654346243,
606.0680542,0.0004482656077,606.0680542,0.03738125041,
605.0309448,0.0003605081583,605.0309448,0.03787039593,
603.9935913,-0.0001243901497,603.9935913,0.03927812353,
602.9559326,9.111956388E-6,602.9559326,0.03977338597,
602.0662842,0.0002504671866,602.0662842,0.0413960591,
601.0280762,-0.0003324556455,601.0280762,0.0422385335,
599.989624,0.000240624955,599.989624,0.04410873726,
598.9508057,0.0001109614313,598.9508057,0.04580200091,
598.0602417,-0.0003238679783,598.0602417,0.04678002,
597.0209351,7.657744572E-5,597.0209351,0.04946839064,
595.9813843,-0.0002462092962,595.9813843,0.05069950595,
594.9415283,-0.0003179186024,594.9415283,0.05318141356,
594.0500488,-0.0003329212195,594.0500488,0.05593526736,
593.0096436,-6.082776599E-5,593.0096436,0.05885903165,
591.9689941,-0.0001552880422,591.9689941,0.06170670316,
590.9281006,0.0005981186987,590.9281006,0.06639522314,
590.0356445,0.0001346279023,590.0356445,0.0697934702,
588.9942017,0.000325119996,588.9942017,0.07409840077,
587.9524536,-0.0002913782373,587.9524536,0.07883873582,
587.0593262,0.0007775076083,587.0593262,0.08394356817,
586.0170898,3.546392236E-6,586.0170898,0.09056128561,
584.9746094,0.0001358967129,584.9746094,0.09790098667,
583.9318237,-0.0001206636225,583.9318237,0.1036742255,
583.0377808,0.0004655497323,583.0377808,0.1106728613,
581.9944458,3.02099761E-5,581.9944458,0.1169430315,
580.9508667,-0.0001409521064,580.9508667,0.1248100847,
580.0561523,-0.0004764028417,580.0561523,0.1327694505,
579.012085,-0.0005255294382,579.012085,0.1401915252,
577.9677124,-0.0004334771074,577.9677124,0.146564573,
577.0723267,2.655981552E-5,577.0723267,0.1522818357,
576.0274658,0.0003909245715,576.0274658,0.1582039297,
574.9823608,-6.43995154E-5,574.9823608,0.1645203382,
573.9369507,0.0001239855919,573.9369507,0.1676125377,
573.0406494,0.0001619469258,573.0406494,0.1706489772,
571.994751,0.0001033749722,571.994751,0.1736448258,
570.9485474,5.441571557E-5,570.9485474,0.1744489819,
570.0516357,0.0002064637811,570.0516357,0.1755194813,
569.0049438,0.0004000447516,569.0049438,0.1751066446,
567.9580078,-0.0002933442593,567.9580078,0.1737553775,
567.0603638,-0.0003933920234,567.0603638,0.1720537245,
566.0129395,-0.0003245405096,566.0129395,0.1690991819,
564.96521,0.0001163471243,564.96521,0.1670616567,
564.0669556,4.053931843E-5,564.0669556,0.1648229212,
563.0187378,-0.000486538891,563.0187378,0.1619823128,
561.9702759,-0.0001410556142,561.9702759,0.1587847918,
561.0714111,-0.0004483723023,561.0714111,0.1560392976,
560.0223999,-0.0002317211329,560.0223999,0.1531243175,
558.9732056,-0.0002823758696,558.9732056,0.1503325105,
558.0736084,-3.256332639E-5,558.0736084,0.1491148025,
557.0239258,3.181501961E-5,557.0239258,0.1470422745,
555.973938,0.0004397922312,555.973938,0.1462188959,
555.0737305,-8.510472253E-5,555.0737305,0.1445498019,
554.0232544,0.0001470054121,554.0232544,0.144415319,
552.9725342,8.54579921E-5,552.9725342,0.1439177841,
552.0717163,0.0002860564855,552.0717163,0.1445745677,
551.0205078,-4.193324276E-5,551.0205078,0.1450203806,
549.9689941,5.177502317E-5,549.9689941,0.1472220421,
549.0675049,0.0001947838173,549.0675049,0.1487052441,
548.015564,-0.0004506996193,548.015564,0.150694713,
546.9633789,5.415682244E-5,546.9633789,0.153500244,
546.0612793,0.0001891381835,546.0612793,0.1554418057,
545.0085449,0.0001558356016,545.0085449,0.1579037011,
543.9556274,0.0001098221619,543.9556274,0.160673067,
543.0528564,0.0001285428589,543.0528564,0.1617742777,
541.9994507,0.0001521843806,541.9994507,0.164258942,
540.9457397,3.593121073E-5,540.9457397,0.1660439223,
540.0424194,-0.000209573991,540.0424194,0.1675076485,
538.9882202,0.0004795951827,538.9882202,0.1692370921,
537.9338379,-0.0004453208821,537.9338379,0.1687298566,
537.0298462,3.730328172E-5,537.0298462,0.1689113379,
535.9749756,-5.922305718E-5,535.9749756,0.1693449318,
535.0705566,6.769708125E-5,535.0705566,0.1690157056,
534.0151978,-0.0003270237066,534.0151978,0.167489782,
532.9595947,1.26841428E-6,532.9595947,0.1663269699,
532.0546265,-4.291681398E-5,532.0546265,0.1648553014,
530.9985352,0.0001716837869,530.9985352,0.162873745,
529.9421997,0.0001072847008,529.9421997,0.1607437879,
529.0366211,-0.0004077713529,529.0366211,0.1582324803,
527.9797974,-0.0005453336635,527.9797974,0.1554559469,
527.0737915,-0.0003446125775,527.0737915,0.1523507535,
526.0165405,-9.540520114E-5,526.0165405,0.150049597,
524.9590454,-0.0002758567862,524.9590454,0.1463508159,
524.0524292,0.0001267044136,524.0524292,0.1435316801,
522.9944458,0.0003916241403,522.9944458,0.1404620707,
521.9362793,0.0001453222503,521.9362793,0.1370138824,
521.0290527,-4.622987763E-5,521.0290527,0.134387061,
519.9703979,-0.0001302386663,519.9703979,0.1310212612,
519.0627441,-0.0005650335806,519.0627441,0.1279505789,
518.0036621,0.0002307570394,518.0036621,0.1253970265,
516.9442749,-0.0001765581837,516.9442749,0.122271888,
516.0360718,2.743999357E-5,516.0360718,0.1204133704,
514.9762573,0.0003497307771,514.9762573,0.1179482415,
514.067627,0.0005177690182,514.067627,0.1155097634,
513.0073853,0.0003274773771,513.0073853,0.1134569421,
511.9468689,0.0002821969392,511.9468689,0.1115221009,
511.0376892,0.0002932834905,511.0376892,0.1102378219,
509.9767151,-2.448743544E-5,509.9767151,0.1078922749,
509.0671387,-0.0004080817162,509.0671387,0.1068436652,
508.0057373,0.0002209929517,508.0057373,0.1060623303,
506.9441223,-9.96495437E-5,506.9441223,0.1043408513,
506.0339355,9.351018525E-5,506.0339355,0.1042435616,
504.9718628,0.0001809029345,504.9718628,0.1031613648,
504.0613098,-0.0003515961871,504.0613098,0.1024528593,
502.9987793,0.0003284358827,502.9987793,0.1020854935,
501.9360046,0.0003013654496,501.9360046,0.1014247388,
501.0249023,-0.0001664148876,501.0249023,0.1005870327,
499.9617004,-0.0001513547613,499.9617004,0.1003422961,
499.0501709,-0.0002115921234,499.0501709,0.1006255448,
497.9865417,-0.0003443021851,497.9865417,0.09929504246,
497.074646,2.127878724E-5,497.074646,0.09977309406,
496.0105896,0.000149128784,496.0105896,0.1002723426,
494.9462585,-5.643104487E-6,494.9462585,0.100255385,
494.0338135,0.0001694826205,494.0338135,0.100131236,
492.9690857,-0.0001224233711,492.9690857,0.09967405349,
492.0562439,-0.0004360631283,492.0562439,0.1000807062,
490.9910889,-0.0002448640007,490.9910889,0.1004001871,
489.9256592,0.0001500351063,489.9256592,0.1009740978,
489.0122681,-0.000148197767,489.0122681,0.1007507145,
487.9464417,0.0003890850348,487.9464417,0.101233542,
487.0326843,0.0001922717493,487.0326843,0.1022382155,
485.9664307,-2.847363248E-5,485.9664307,0.102533713,
485.0523071,6.552232662E-5,485.0523071,0.1020279303,
483.9855957,0.0002509334008,483.9855957,0.1036098748,
483.0711365,-0.0001293587993,483.0711365,0.1038753092,
482.0039978,6.982006744E-5,482.0039978,0.1040562168,
480.936676,0.0004062372318,480.936676,0.1056791916,
480.021637,0.000415124523,480.021637,0.1067709029,
478.9538574,0.0001978138462,478.9538574,0.1087696999,
478.0384521,2.301323548E-5,478.0384521,0.1103023887,
476.9702759,5.995604079E-5,476.9702759,0.1106296778,
476.0545044,0.0005672211992,476.0545044,0.1125570908,
474.9859314,-0.0001444714435,474.9859314,0.1140059754,
474.0697937,0.0006113648415,474.0697937,0.1163462847,
473.0007935,-5.420183516E-5,473.0007935,0.1190695018,
471.9315491,-0.0002936546807,471.9315491,0.1219959706,
471.0148926,-0.0002649397065,471.0148926,0.1245723441,
469.9452209,1.216657529E-5,469.9452209,0.1273193657,
469.0281982,-0.0004168228479,469.0281982,0.1309362501,
467.9581604,-0.0002957241377,467.9581604,0.1349209994,
467.0407715,2.451470391E-5,467.0407715,0.1397615373,
465.9703064,3.839058627E-5,465.9703064,0.1448474377,
465.0525818,-0.0002306344977,465.0525818,0.1485070437,
463.9816895,-0.0003447677591,463.9816895,0.1540073156,
463.0636292,-0.0003925644269,463.0636292,0.1600041091,
461.9923401,1.615314432E-5,461.9923401,0.1673866361,
461.0739136,-0.0003262994578,461.0739136,0.1722971946,
460.0022278,8.26358737E-5,460.0022278,0.1808742732,
458.9303284,-0.0001598940726,458.9303284,0.1900396645,
458.0113831,-0.0001869082334,458.0113831,0.1981015801,
456.9390564,0.0001870405104,456.9390564,0.206932798,
456.0197754,-0.0003535101714,456.0197754,0.2155154496,
454.9470825,0.0002153469832,454.9470825,0.2255224735,
454.0274353,6.746407598E-5,454.0274353,0.2353416383,
452.9543152,-0.0003468887298,452.9543152,0.2482070923,
452.0343628,-0.0002039335377,452.0343628,0.2586056888,
450.9608459,8.27394324E-5,450.9608459,0.2736912072,
450.0405273,-8.412125317E-5,450.0405273,0.2837736607,
448.9666443,-9.157489694E-5,448.9666443,0.3012579083,
448.04599,-2.184720688E-5,448.04599,0.3172528148,
446.9716797,-0.0004374078417,446.9716797,0.3368313611,
446.0506897,-0.0002273228456,446.0506897,0.351901263,
444.9760132,-0.0001007365063,444.9760132,0.3747732937,
444.0546875,-0.0001696752588,444.0546875,0.3961564004,
442.9796143,-0.000348130241,442.9796143,0.4251458645,
442.0579529,8.302423521E-5,442.0579529,0.4497952163,
440.9825134,-9.561223851E-5,440.9825134,0.4839390218,
440.0605164,3.360128539E-5,440.0605164,0.5175428391,
438.9846802,-0.000242639042,438.9846802,0.5613747239,
438.0623474,-0.0001728838542,438.0623474,0.6019984484,
436.9861145,-0.0003465783375,436.9861145,0.6542058587,
436.0634766,-1.397840037E-6,436.0634766,0.7036219835,
434.9868469,-0.0001932734012,434.9868469,0.7698732615,
434.0638733,-5.037117444E-5,434.0638733,0.825795114,
432.9868774,-1.190752869E-6,432.9868774,0.8934451342,
432.0635986,-0.0001024963422,432.0635986,0.9718817472,
430.9862061,-0.0004094782344,430.9862061,1.056825519,
430.0625916,0.000158321549,430.0625916,1.128004193,
428.9848328,1.017330487E-5,428.9848328,1.219648123,
428.0608826,0.0001740144507,428.0608826,1.287333488,
426.9827576,-0.0003416121763,426.9827576,1.371708512,
426.0585022,-5.151002188E-5,426.0585022,1.444223523,
424.980011,1.964789408E-5,424.980011,1.513280869,
424.0554199,0.0001549033768,424.0554199,1.569552064,
422.976532,0.000152650493,422.976532,1.622632861,
422.0516357,0.0004267326731,422.0516357,1.658319473,
420.9723816,0.0004003038339,420.9723816,1.687338471,
420.0471802,-0.0001672946673,420.0471802,1.698913574,
418.9675598,0.0001060677605,418.9675598,1.68910563,
418.0420227,0.0006595054874,418.0420227,1.671229243,
416.9620361,-2.976784344E-5,416.9620361,1.656219006,
416.0361938,-0.0002375164622,416.0361938,1.611072063,
414.9558716,0.0001185998117,414.9558716,1.563012362,
414.0296936,-4.296858242E-5,414.0296936,1.51388967,
412.9490051,0.000153297864,412.9490051,1.457354307,
412.022522,0.0003505338973,412.022522,1.400467157,
410.9414368,-0.0002830484591,410.9414368,1.331674099,
410.014679,2.125289939E-5,410.014679,1.275054812,
408.9332581,-0.0001816814911,408.9332581,1.210118055,
408.0061646,-0.0001013058645,408.0061646,1.156635642,
406.9243774,-0.0001293070527,406.9243774,1.094792485,
405.9969788,-0.000187994985,405.9969788,1.049031734,
405.0694275,-0.000204502765,405.0694275,1.004827499,
403.9871216,-0.0002490551269,403.9871216,0.9555878043,
403.0592957,-0.0004532338062,403.0592957,0.9227958322,
401.9766235,-0.0001702962763,401.9766235,0.8820123672,
401.0484924,3.608653788E-5,401.0484924,0.8456311226,
399.9654846,-0.0002494690707,399.9654846,0.8071686029,
399.0370483,-0.0003979955509,399.0370483,0.7798551917,
397.9536743,-0.0004299083957,397.9536743,0.7476125956,
397.0249329,-8.199900913E-5,397.0249329,0.7243492603,
395.9412231,-9.659569332E-5,395.9412231,0.6914892793,
395.0121765,-0.0001017717004,395.0121765,0.6656451225,
393.9281311,0.0003395236272,393.9281311,0.6402917504,
392.9988098,-7.030060078E-5,392.9988098,0.6190260649,
392.0693359,-3.359868788E-5,392.0693359,0.6018946171,
390.9847717,9.967241203E-5,390.9847717,0.5784652233,
390.0549927,0.0004213431384,390.0549927,0.5575566888,
388.9700928,-4.752403765E-5,388.9700928,0.5378617644,
388.0400391,-0.0002242698829,388.0400391,0.5234036446,
386.9548035,-0.0003985127842,386.9548035,0.5081897378,
386.0244446,-0.0002543845621,386.0244446,0.4962437153,
384.9388733,-0.000274511578,384.9388733,0.4805331826,
384.0082397,-6.989155281E-6,384.0082397,0.4712672532,
383.0774536,-0.0002611626405,383.0774536,0.4622530937,
381.991394,0.0005148404161,381.991394,0.4539223909,
381.0603333,0.0001083980751,381.0603333,0.4486429393,
379.973938,2.632682845E-5,379.973938,0.4423730969,
379.042572,0.0002061529958,379.042572,0.4389860034,
377.9558411,2.529132689E-5,377.9558411,0.4362412393,
377.0242004,0.0001398067252,377.0242004,0.4344749749,
375.9371338,0.0002123427257,375.9371338,0.4339903891,
375.005249,0.0005315829185,375.005249,0.4351844788,
374.0731812,0.0005691651604,374.0731812,0.4359853268,
372.9856567,-0.0001735566184,372.9856567,0.4380300343,
372.0533142,1.599782263E-5,372.0533142,0.4398706257,
370.9654541,9.04549961E-5,370.9654541,0.4436333477,
370.0328369,-0.000697222189,370.0328369,0.4481939971,
368.9446411,-3.049259976E-5,368.9446411,0.4534238875,
368.0117798,-4.00696299E-5,368.0117798,0.4573317766,
366.9232483,-0.0002256152511,366.9232483,0.4632301033,
365.9900818,-0.0006786654703,365.9900818,0.4667004347,
365.0567932,-0.0006221117219,365.0567932,0.471704632,
363.967804,-0.0003620972566,363.967804,0.4771537483,
363.0342712,-0.0001879432239,363.0342712,0.4801342487,
361.9449463,9.690198931E-5,361.9449463,0.4835913181,
361.0111084,0.0003662337258,361.0111084,0.4848142564,
360.077179,-0.0001340168674,360.077179,0.4853575528,
358.9873962,0.0003435650142,358.9873962,0.4860348105,
358.0531616,0.0006072432152,358.0531616,0.4852087498,
356.9630737,-0.0002592482488,356.9630737,0.4823413491,
356.028595,-0.0001449372357,356.028595,0.4799911678,
354.9382019,-0.0001875292364,354.9382019,0.4760834277,
354.0034485,0.0001282580197,354.0034485,0.4710462093,
353.0685425,-0.0003299207601,353.0685425,0.4658554196,
351.9776917,-0.0002574890386,351.9776917,0.4579042494,
351.042572,-0.0006051028031,351.042572,0.4524772763,
349.9513855,-0.0002921025443,349.9513855,0.4441919327,
349.0159912,-5.384248198E-6,349.0159912,0.4360308647,
347.92453,0.0001272222871,347.92453,0.4274898767,
346.9888611,-0.000759399496,346.9888611,0.4199920893,
346.0530701,-0.0004503893142,346.0530701,0.4120704234,
344.9611511,0.0002153210808,344.9611511,0.4033007026,
344.025116,-3.075144195E-5,344.025116,0.3946105838,
342.9328918,0.0003218041384,342.9328918,0.3864610195,
341.996582,0.0002377500205,341.996582,0.3783957958,
341.0601501,-0.0007338164141,341.0601501,0.3702473044,
339.9674988,5.413093459E-5,339.9674988,0.360717535,
339.0308228,-0.0001250629866,339.0308228,0.3526514173,
337.9378662,0.0005918716197,337.9378662,0.3453763425,
337.000946,0.0006047028583,337.000946,0.3359357715,
336.0638733,0.0002460122632,336.0638733,0.3285464048,
334.97052,-0.001579636591,334.97052,0.3167715669,
334.0332031,-0.0001457135513,334.0332031,0.3086305261,
332.9395447,-0.0001933251478,332.9395447,0.3007805645,
332.0019836,-2.795675528E-6,332.0019836,0.2921176851,
331.0643005,-2.805948316E-5,331.0643005,0.285495609,
329.9702148,-0.0008459056844,329.9702148,0.2743236423,
329.0322876,-0.0002165080368,329.0322876,0.2667505145,
327.9378967,-0.000168536717,327.9378967,0.2596079409,
326.9997253,0.0001137319487,326.9997253,0.2520446777,
326.0614624,-0.0005097061512,326.0614624,0.2458538115,
324.9666443,-0.0005769255222,324.9666443,0.2381140292,
324.0281372,-0.000283307163,324.0281372,0.2328219414,
322.9330444,-0.0005491082557,322.9330444,0.226824373,
321.9942627,3.567232852E-5,321.9942627,0.2212729752,
321.0553894,5.889456952E-5,321.0553894,0.2177172005,
319.9598999,0.0002866522409,319.9598999,0.2132298946,
319.0207825,-0.0004862803034,319.0207825,0.2089364976,
317.9249878,6.875857798E-5,317.9249878,0.2063736767,
316.9856262,0.0002681578626,316.9856262,0.2039574087,
316.0461731,0.0001103141185,316.0461731,0.2025782168,
314.9499817,-0.0001981377718,314.9499817,0.2012485266,
314.0102844,-0.0007813635748,314.0102844,0.201656431,
313.0704651,-1.382288701E-5,313.0704651,0.2040480822,
311.973877,0.0001097444838,311.973877,0.2061007768,
311.033844,-0.0006329164607,311.033844,0.2098504305,
309.9369812,1.32020441E-5,309.9369812,0.2166369706,
308.9967041,-0.0002703724313,308.9967041,0.2241035551,
308.0563049,-0.0008087524911,308.0563049,0.2319573611,
306.9590454,-0.0005198931322,306.9590454,0.2446448654,
306.0184326,-0.0007790896925,306.0184326,0.2543636858,
305.0776978,-0.0003227298439,305.0776978,0.2728115022,
303.9800415,0.0001972181926,303.9800415,0.2945423722,
303.039093,0.0001276883704,303.039093,0.3152453303,
301.9411926,-3.779186954E-5,301.9411926,0.341987282,
301,-0.001009310945,301,0.3612372279,
300.0587158,-0.0003054505214,300.0587158,0.3904974759,
298.9604187,-0.0006228872226,298.9604187,0.4276309609,
298.0189209,8.789175627E-5,298.0189209,0.4523415864,
297.077301,-0.0007694772794,297.077301,0.4885324538,
295.9786072,-0.000218008674,295.9786072,0.5329847932,
295.0367737,-0.0002756498288,295.0367737,0.5806570053,
293.9378357,-0.002139219781,293.9378357,0.6379921436,
292.9957886,-0.0005742369103,292.9957886,0.6753380299,
292.0536194,-0.001821704209,292.0536194,0.7172470093,
290.9543152,-0.0004502858792,290.9543152,0.746694088,
290.0119324,-0.001223664498,290.0119324,0.7808049321,
289.069458,-0.001053522574,289.069458,0.8166892529,
287.9697571,-0.0003586313978,287.9697571,0.8684968948,
287.0270691,-5.518537728E-5,287.0270691,0.9188174605,
285.9271545,-0.0003257303906,285.9271545,0.9629632235,
284.9842224,-0.002250689548,284.9842224,0.9911901951,
284.0412292,0.0001122301692,284.0412292,1.004275322,
282.940918,-0.000169934021,282.940918,1.012276411,
281.9977112,-0.000395771378,281.9977112,1.017070889,
281.0543823,-0.001178798964,281.0543823,1.0202564,
279.9537048,-0.0002749254927,279.9537048,1.024704099,
279.0101929,-0.00055645057,279.0101929,1.023023725,
278.0665588,-0.0002937581448,278.0665588,1.016826272,
276.9655457,-0.002022877568,276.9655457,1.006014943,
276.021698,-0.001338001573,276.021698,0.996221602,
275.0777588,-0.001515151816,275.0777588,0.9755322933,
273.9764099,-0.0004142367397,273.9764099,0.9535806775,
273.0322571,-0.0003686150303,273.0322571,0.937048912,
271.9306641,-0.001689083874,271.9306641,0.9157880545,
270.9862976,-0.00115076208,270.9862976,0.8998941779,
270.0418701,-0.001942069037,270.0418701,0.8826816082,
268.9399109,-0.001130210818,268.9399109,0.8593965173,
267.9952698,-0.0006321927067,267.9952698,0.8337757587,
267.0505371,-0.0005082582356,267.0505371,0.816000104,
265.9482422,4.654546501E-5,265.9482422,0.7965561748,
265.0033264,-0.00130997505,265.0033264,0.7691328526,
264.0582886,-0.003124507843,264.0582886,0.7442163229,
262.955658,-0.001091171289,262.955658,0.7240130901,
262.010437,-0.002943487838,262.010437,0.7068454027,
261.0651245,-0.001965313451,261.0651245,0.6953648329,
259.9621582,0.000980735058,259.9621582,0.6846038699,
259.0166321,-0.0009976890869,259.0166321,0.6663907766,
258.0710449,-0.0001913586893,258.0710449,0.6498538852,
256.9677429,-0.0005215478013,256.9677429,0.6303593516,
256.0219421,-0.002354870318,256.0219421,0.6171876192,
255.0760651,-0.0006152358837,255.0760651,0.6152406335,
253.9724274,-0.0009748062002,253.9724274,0.6144304276,
253.0263672,4.745157275E-5,253.0263672,0.6154620051,
251.9225006,-0.002814193256,251.9225006,0.6151546836,
250.9762421,-0.001097987988,250.9762421,0.6228864193,
250.0299072,-0.001136252424,250.0299072,0.6385071278,
248.9321289,5.369081555E-5,248.9321289,0.6653565168,
247.9912415,-0.001185872359,247.9912415,0.6898794174,
247.0502777,-0.001033070032,247.0502777,0.7159519792,
245.9523621,-0.0006116686855,245.9523621,0.7702753544,
245.0112,-0.001142603694,245.0112,0.8393030763,
244.0699615,-0.0004210640618,244.0699615,0.9172756076,
242.9717407,-0.0001080345901,242.9717407,1.010023832,
242.0303192,-0.0007048203843,242.0303192,1.133484721,
240.9318848,-0.000881608983,240.9318848,1.29412055,
239.9902802,-3.981079499E-5,239.9902802,1.472525597,
239.0485992,-0.0004688006302,239.0485992,1.698255181,
237.9498596,-0.0004299083957,237.9498596,1.997410297,
237.0079956,-0.0002779780771,237.0079956,2.262945175,
236.0660553,0.0001782355685,236.0660553,2.659380913,
234.9670258,-0.000319522369,234.9670258,2.818012714,
234.0249023,0.0003244723775,234.0249023,3.083984852,
232.9256592,-0.0001186450681,232.9256592,3.264859676,
231.9833679,-0.0007437914028,231.9833679,3.493360519,
231.0409851,-0.001329382183,231.0409851,3.312212229,
229.941452,0.001138895634,229.941452,3.42408061,
228.9989014,0.002759130206,228.9989014,3.305905342,
228.0562744,-0.00194892392,228.0562744,3.42133379,
226.9564514,0.003759909421,226.9564514,4.020763874,
226.0136566,-0.00618540775,226.0136566,3.11254096,
225.0707855,-0.0007360388408,225.0707855,3.117675543,
223.9706726,0.0008107281756,223.9706726,3.372010946,
223.0276337,-0.002417428652,223.0276337,2.838592529,
221.9273224,-0.00439071795,221.9273224,2.690011024,
220.9841156,-0.003634464229,220.9841156,3.084358692,
220.0408325,-0.009868600406,220.0408325,2.392976761,
218.9402466,-0.02084300853,218.9402466,2.99660778,
217.9967957,-0.02576563507,217.9967957,2.007836819,
217.0532684,0.004768679384,217.0532684,2.616466999,
215.9524078,-0.021637097,215.9524078,10,
215.008728,-0.00742909871,215.008728,1.559405088,
214.0649719,0.01620206051,214.0649719,1.145469785,
212.9638367,0.01906839013,212.9638367,10,
212.0199127,-0.002275513951,212.0199127,0.5328889489,
211.0759277,0.04975439608,211.0759277,0.9589961171,
209.9745178,-0.06321877241,209.9745178,10,
209.0303802,0.002584467642,209.0303802,0.868157506,
207.9287872,-0.1574906409,207.9287872,0.5436242223,
206.9844818,0.1048223749,206.9844818,0.582609117,
206.0401154,-0.07996261865,206.0401154,0.3759165108,
204.9382629,0.1271704137,204.9382629,10,
203.9937286,0.05013884231,203.9937286,0.2649429739,
203.0491333,-0.1039731055,203.0491333,0.1560136825,
201.9470215,0.04653474689,201.9470215,0.425147742,
201.0022736,0.07811781019,201.0022736,10,
200.0574646,-0.2203770578,200.0574646,0.06808071584,

baseline,
baseline
Collection Time: 05/06/2019 11:14:18
Operator Name  :
Scan Software Version: 3.00(339)
Parameter List :
Instrument                        Cary 50
Instrument Version                3.00
Start (nm)                        800.0
Stop (nm)                         200.0
X Mode                            Nanometers
Y Mode                            Abs
UV-Vis Scan Rate (nm/min)         4800.000
UV-Vis Data Interval (nm)         1.00
UV-Vis Ave. Time (sec)            0.0125
Beam Mode                         Dual Beam
Baseline Correction               On
Baseline Type                     Baseline correction
Baseline File Name
Baseline Std Ref File Name
Cycle Mode                        Off
Comments
Method Log     :
Method Name    :
Date/Time stamp: 04/06/2019 15:57:59
Method Modifications:
Baseline Correction Changed: 05/06/2019 11:13:55, Old:0, New:1
Storage Changed: 05/06/2019 11:13:55, Old:1, New:0
End Method Modifications
<Current Wavelength> , 201.9

sample,
sample
Collection Time: 05/06/2019 11:14:40
Operator Name  :
Scan Software Version: 3.00(339)
Parameter List :
Instrument                        Cary 50
Instrument Version                3.00
Start (nm)                        800.0
Stop (nm)                         200.0
X Mode                            Nanometers
Y Mode                            Abs
UV-Vis Scan Rate (nm/min)         4800.000
UV-Vis Data Interval (nm)         1.00
UV-Vis Ave. Time (sec)            0.0125
Beam Mode                         Dual Beam
Baseline Correction               On
Baseline Type                     Baseline correction
Baseline File Name
Baseline Std Ref File Name
Cycle Mode                        Off
Comments
Method Log     :
Method Name    :
Date/Time stamp: 04/06/2019 15:57:59
Method Modifications:
Baseline Correction Changed: 05/06/2019 11:13:55, Old:0, New:1
Storage Changed: 05/06/2019 11:13:55, Old:1, New:0
End Method Modifications
<Current Wavelength> , 201.9

